"","Time..s.","PPG.trace","Preprocessed.PPG"
"9422",138.12851,82.97002,83.32591
"9423",138.14182,83.11894,83.56765
"9424",138.15518,82.99687,83.543045
"9425",138.16849,82.684364,83.32419
"9426",138.18185,82.269325,82.993034
"9427",138.19516,81.82254,82.617165
"9428",138.20853,81.40261,82.25419
"9429",138.22183,81.0486,81.94401
"9430",138.2352,80.780045,81.70822
"9431",138.2485,80.59937,81.551926
"9432",138.26187,80.49439,81.465675
"9433",138.27518,80.43824,81.42497
"9434",138.28854,80.42115,81.42158
"9435",138.30185,80.430916,81.4445
"9436",138.31522,80.46998,81.49703
"9437",138.32852,80.52857,81.57031
"9438",138.34189,80.59449,81.65275
"9439",138.3552,80.6482,81.72504
"9440",138.36856,80.67017,81.767265
"9441",138.38187,80.64576,81.763794
"9442",138.39523,80.570076,81.70829
"9443",138.40854,80.448006,81.604034
"9444",138.4219,80.28443,81.45446
"9445",138.43521,80.093994,81.27291
"9446",138.44858,79.886475,81.06833
"9447",138.46188,79.67895,80.857254
"9448",138.47525,79.47631,80.644585
"9449",138.48856,79.293205,80.445114
"9450",138.50192,79.13451,80.26433
"9451",138.51523,79.00023,80.103004
"9452",138.5286,78.890366,79.9619
"9453",138.5419,78.81224,79.8491
"9454",138.55527,78.751205,79.750946
"9455",138.56857,78.70725,79.66797
"9456",138.58194,78.67307,79.59339
"9457",138.59525,78.641335,79.52019
"9458",138.60861,78.607155,79.44355
"9459",138.62192,78.57053,79.3634
"9460",138.63528,78.53391,79.28211
"9461",138.64859,78.49485,79.197235
"9462",138.66196,78.45579,79.11114
"9463",138.67526,78.42161,79.0287
"9464",138.68863,78.38499,78.94276
"9465",138.70193,78.345924,78.853226
"9466",138.7153,78.30198,78.75759
"9467",138.7286,78.25315,78.6557
"9468",138.74197,78.20676,78.55472
"9469",138.75528,78.16525,78.45718
"9470",138.76865,78.13107,78.36566
"9471",138.78195,78.1091,78.285286
"9472",138.79532,78.09689,78.21399
"9473",138.80862,78.09445,78.15208
"9474",138.82199,78.08957,78.08765
"9475",138.8353,78.08469,78.02306
"9476",138.84866,78.07492,77.953445
"9477",138.86197,78.06271,77.88108
"9478",138.87534,78.04562,77.80345
"9479",138.88864,78.02121,77.717964
"9480",138.90201,77.994354,77.62927
"9481",138.91531,77.994354,77.5666
"9482",138.92868,78.07492,77.58449
"9483",138.94199,78.31907,77.76848
"9484",138.95535,78.78783,78.18471
"9485",138.96866,79.49096,78.84996
"9486",138.98203,80.34791,79.691
"9487",138.99533,81.23659,80.59055
"9488",139.0087,82.005646,81.398254
"9489",139.022,82.53544,81.99072
"9490",139.03537,82.77959,82.3141
"9491",139.04868,82.75273,82.37411
"9492",139.06204,82.52323,82.23063
"9493",139.07535,82.16434,81.950584
"9494",139.08871,81.74685,81.60073
"9495",139.10202,81.322044,81.230515
"9496",139.11539,80.938736,80.88852
"9497",139.1287,80.618904,80.59802
"9498",139.14206,80.36988,80.36834
"9499",139.15536,80.18677,80.196785
"9500",139.16873,80.06958,80.085434
"9501",139.18204,80.01343,80.031456
"9502",139.1954,80.025635,80.04408
"9503",139.20871,80.10376,80.12301
"9504",139.22208,80.24536,80.26785
"9505",139.23538,80.42603,80.45619
"9506",139.24875,80.60914,80.65261
"9507",139.26205,80.762955,80.82546
"9508",139.27542,80.850845,80.937195
"9509",139.28873,80.86305,80.97599
"9510",139.3021,80.80202,80.941925
"9511",139.3154,80.6775,80.84247
"9512",139.32877,80.50416,80.6903
"9513",139.34207,80.30396,80.50586
"9514",139.35544,80.08667,80.298065
"9515",139.36874,79.869385,80.08349
"9516",139.38211,79.6643,79.87432
"9517",139.39542,79.483635,79.68317
"9518",139.40878,79.32983,79.51322
"9519",139.42209,79.21263,79.375084
"9520",139.43546,79.12962,79.26747
"9521",139.44876,79.078354,79.189
"9522",139.46213,79.05638,79.13823
"9523",139.47543,79.046616,79.098976
"9524",139.4888,79.044174,79.06674
"9525",139.5021,79.046616,79.039314
"9526",139.51547,79.0515,79.014404
"9527",139.52878,79.05882,78.99209
"9528",139.54214,79.063705,78.96756
"9529",139.55545,79.06859,78.943184
"9530",139.56882,79.06615,78.91164
"9531",139.58212,79.05394,78.87025
"9532",139.59549,79.03197,78.81871
"9533",139.6088,79.00755,78.764046
"9534",139.62216,78.98314,78.70862
"9535",139.63547,78.958725,78.65243
"9536",139.64883,78.924545,78.58571
"9537",139.66214,78.88304,78.5106
"9538",139.6755,78.83177,78.42442
"9539",139.68881,78.77562,78.331764
"9540",139.70218,78.71946,78.23734
"9541",139.71548,78.675514,78.15338
"9542",139.72885,78.67307,78.10955
"9543",139.74216,78.76097,78.15598
"9544",139.75552,79.00755,78.363846
"9545",139.76883,79.45922,78.7845
"9546",139.7822,80.10376,79.41214
"9547",139.7955,80.867935,80.17956
"9548",139.80887,81.636986,80.97573
"9549",139.82217,82.27665,81.66655
"9550",139.83554,82.686806,82.14785
"9551",139.84885,82.83818,82.38319
"9552",139.86221,82.75273,82.38643
"9553",139.87552,82.496376,82.216095
"9554",139.88889,82.13748,81.93521
"9555",139.90219,81.73708,81.60161
"9556",139.91556,81.34402,81.262825
"9557",139.92886,80.987564,80.94837
"9558",139.94223,80.68726,80.67893
"9559",139.95554,80.43336,80.4465
"9560",139.9689,80.233154,80.25984
"9561",139.98221,80.09155,80.12553
"9562",139.99557,80.02319,80.06003
"9563",140.00888,80.04028,80.07784
"9564",140.02225,80.14282,80.18164
"9565",140.03555,80.31861,80.36189
"9566",140.04892,80.53101,80.58425
"9567",140.06223,80.74586,80.81569
"9568",140.07559,80.91188,81.00502
"9569",140.0889,81.004654,81.12629
"9570",140.10226,81.01198,81.16501
"9571",140.11557,80.93141,81.116066
"9572",140.12894,80.780045,80.993805
"9573",140.14224,80.58228,80.82042
"9574",140.15561,80.35523,80.611565
"9575",140.16891,80.128174,80.39561
"9576",140.18228,79.90845,80.179886
"9577",140.19559,79.708244,79.97682
"9578",140.20895,79.53002,79.78948
"9579",140.22226,79.381096,79.62587
"9580",140.23563,79.26635,79.49178
"9581",140.24893,79.18822,79.390724
"9582",140.2623,79.14183,79.31897
"9583",140.2756,79.1223,79.27262
"9584",140.28897,79.1223,79.24519
"9585",140.30228,79.132065,79.22753
"9586",140.31564,79.14183,79.210175
"9587",140.32895,79.14671,79.18824
"9588",140.34232,79.14671,79.161575
"9589",140.35562,79.14183,79.13003
"9590",140.36899,79.12962,79.091
"9591",140.3823,79.11253,79.046715
"9592",140.39566,79.09544,79.00189
"9593",140.40897,79.07103,78.94921
"9594",140.42233,79.04173,78.890884
"9595",140.43564,79.00755,78.82676
"9596",140.449,78.96605,78.75424
"9597",140.46231,78.91722,78.6731
"9598",140.47568,78.86107,78.583115
"9599",140.48898,78.80736,78.49381
"9600",140.50235,78.77562,78.424805
"9601",140.51566,78.83421,78.44514
"9602",140.52902,79.0515,78.62599
"9603",140.54233,79.49828,79.04314
"9604",140.5557,80.164795,79.69397
"9605",140.569,80.99245,80.52677
"9606",140.58237,81.85184,81.417175
"9607",140.59567,82.60624,82.22945
"9608",140.60904,83.13115,82.8358
"9609",140.62234,83.387505,83.19
"9610",140.63571,83.389946,83.2983
"9611",140.64902,83.192184,83.206474
"9612",140.66238,82.86748,82.98152
"9613",140.67569,82.48417,82.68782
"9614",140.68906,82.091095,82.372375
"9615",140.70236,81.72976,82.076385
"9616",140.71573,81.427025,81.827705
"9617",140.72903,81.19264,81.63792
"9618",140.7424,81.02174,81.50429
"9619",140.7557,80.89967,81.41415
"9620",140.76907,80.833755,81.37634
"9621",140.78238,80.814224,81.382866
"9622",140.79575,80.84352,81.43761
"9623",140.80905,80.91432,81.53477
"9624",140.82242,81.01442,81.66344
"9625",140.83572,81.1194,81.80012
"9626",140.84909,81.20241,81.918106
"9627",140.8624,81.23903,81.9923
"9628",140.87576,81.21217,82.004166
"9629",140.88907,81.12184,81.95171
"9630",140.90244,80.97536,81.84029
"9631",140.91574,80.782486,81.677895
"9632",140.92911,80.56275,81.48261
"9633",140.94241,80.33326,81.270706
"9634",140.95578,80.111084,81.058945
"9635",140.96909,79.906006,80.85734
"9636",140.98245,79.727776,80.67617
"9637",140.99576,79.56664,80.50653
"9638",141.00912,79.42748,80.35383
"9639",141.02243,79.310295,80.21875
"9640",141.0358,79.217514,80.104416
"9641",141.0491,79.149155,80.011604
"9642",141.06247,79.10521,79.94107
"9643",141.07578,79.07591,79.88381
"9644",141.08914,79.05394,79.83296
"9645",141.10245,79.03441,79.78387
"9646",141.11581,79.009995,79.72928
"9647",141.12912,78.9807,79.669044
"9648",141.14249,78.941635,79.59813
"9649",141.15579,78.89769,79.52111
"9650",141.16916,78.84642,79.435394
"9651",141.18246,78.79027,79.34319
"9652",141.19583,78.73411,79.24923
"9653",141.20914,78.68772,79.163284
"9654",141.2225,78.64622,79.08077
"9655",141.23581,78.60227,78.99452
"9656",141.24918,78.56077,78.90934
"9657",141.26248,78.51682,78.82042
"9658",141.27585,78.47288,78.730125
"9659",141.28915,78.42893,78.63846
"9660",141.30252,78.39231,78.55274
"9661",141.31583,78.36057,78.470764
"9662",141.3292,78.33372,78.39268
"9663",141.3425,78.30686,78.31375
"9664",141.35587,78.28245,78.23643
"9665",141.36917,78.25559,78.1559
"9666",141.38254,78.22629,78.07208
"9667",141.39584,78.19943,77.9898
"9668",141.40921,78.18967,77.92377
"9669",141.42252,78.25315,77.93068
"9670",141.43588,78.470436,78.093376
"9671",141.44919,78.924545,78.49969
"9672",141.46255,79.635,79.17654
"9673",141.47586,80.552986,80.083115
"9674",141.48923,81.5613,81.10871
"9675",141.50253,82.496376,82.092575
"9676",141.5159,83.20439,82.8786
"9677",141.5292,83.60479,83.379135
"9678",141.54257,83.69756,83.58456
"9679",141.55588,83.53887,83.54141
"9680",141.56924,83.20683,83.31996
"9681",141.58255,82.78935,83.00269
"9682",141.59592,82.357216,82.65772
"9683",141.60922,81.96658,82.34075
"9684",141.62259,81.651634,82.08726
"9685",141.6359,81.42947,81.9167
"9686",141.64926,81.29763,81.82954
"9687",141.66257,81.22926,81.80172
"9688",141.67593,81.197525,81.808395
"9689",141.68924,81.17799,81.82629
"9690",141.7026,81.16579,81.85089
"9691",141.71591,81.15358,81.875114
"9692",141.72928,81.1487,81.90628
"9693",141.74258,81.1487,81.94218
"9694",141.75595,81.1487,81.97807
"9695",141.76926,81.13161,81.99688
"9696",141.78262,81.0901,81.99074
"9697",141.79593,81.01198,81.94668
"9698",141.8093,80.89479,81.861115
"9699",141.8226,80.740974,81.73526
"9700",141.83597,80.55543,81.57287
"9701",141.84927,80.35767,81.39247
"9702",141.86264,80.15747,81.203445
"9703",141.87595,79.96948,81.02038
"9704",141.88931,79.79126,80.8412
"9705",141.90262,79.622795,80.666214
"9706",141.91599,79.46899,80.50062
"9707",141.92929,79.33227,80.347305
"9708",141.94266,79.21507,80.20924
"9709",141.95596,79.11986,80.0895
"9710",141.96933,79.046616,79.988754
"9711",141.98264,78.98802,79.90037
"9712",141.996,78.93919,79.819916
"9713",142.00931,78.890366,79.73794
"9714",142.02267,78.84154,79.654434
"9715",142.03598,78.79027,79.56696
"9716",142.04935,78.73899,79.47788
"9717",142.06265,78.69016,79.38965
"9718",142.07602,78.64622,79.30477
"9719",142.08932,78.60227,79.21852
"9720",142.10269,78.56077,79.13334
"9721",142.116,78.519264,79.04686
"9722",142.12936,78.470436,78.95176
"9723",142.14267,78.41917,78.85269
"9724",142.15604,78.3679,78.75202
"9725",142.16934,78.31907,78.65219
"9726",142.18271,78.27268,78.553276
"9727",142.19601,78.22873,78.455345
"9728",142.20938,78.18967,78.36093
"9729",142.22269,78.15549,78.27018
"9730",142.23605,78.12619,78.18324
"9731",142.24936,78.101776,78.10027
"9732",142.26273,78.082245,78.02142
"9733",142.27603,78.06027,77.93952
"9734",142.2894,78.0383,77.85693
"9735",142.3027,78.01633,77.77366
"9736",142.31607,77.99924,77.69458
"9737",142.32938,77.98215,77.61497
"9738",142.34274,77.97482,77.544586
"9739",142.35605,77.977264,77.48374
"9740",142.36942,77.98703,77.4303
"9741",142.38272,78.00168,77.38204
"9742",142.39609,78.01877,77.336685
"9743",142.4094,78.03586,77.29186
"9744",142.42276,78.048065,77.24269
"9745",142.43607,78.05295,77.18658
"9746",142.44943,78.05539,77.128174
"9747",142.46274,78.06027,77.07229
"9748",142.4761,78.116425,77.067825
"9749",142.48941,78.29954,77.19208
"9750",142.50278,78.69993,77.53933
"9751",142.51608,79.361565,78.16034
"9752",142.52945,80.25269,79.03152
"9753",142.54276,81.26101,80.04773
"9754",142.55612,82.22293,81.04906
"9755",142.56943,82.97734,81.87293
"9756",142.5828,83.424126,82.41276
"9757",142.5961,83.546196,82.64183
"9758",142.60947,83.40215,82.608604
"9759",142.62277,83.070114,82.38288
"9760",142.63614,82.63798,82.046684
"9761",142.64944,82.1741,81.665245
"9762",142.66281,81.73708,81.296165
"9763",142.67612,81.36843,80.9818
"9764",142.68948,81.0901,80.74623
"9765",142.70279,80.907,80.59719
"9766",142.71616,80.80202,80.52055
"9767",142.72946,80.75807,80.50167
"9768",142.74283,80.75075,80.518036
"9769",142.75613,80.77028,80.56103
"9770",142.7695,80.81178,80.6266
"9771",142.7828,80.867935,80.70812
"9772",142.79617,80.93385,80.80116
"9773",142.80948,80.99733,80.89382
"9774",142.82285,81.03639,80.96405
"9775",142.83615,81.03639,80.99644
"9776",142.84952,80.990005,80.98244
"9777",142.86282,80.89479,80.91816
"9778",142.87619,80.75807,80.8094
"9779",142.8895,80.587166,80.662186
"9780",142.90286,80.39185,80.48522
"9781",142.91617,80.18921,80.29482
"9782",142.92953,79.9939,80.10542
"9783",142.94284,79.81079,79.92213
"9784",142.9562,79.64477,79.75019
"9785",142.96951,79.50561,79.59993
"9786",142.98288,79.38354,79.46241
"9787",142.99619,79.281,79.34061
"9788",143.00955,79.200424,79.237564
"9789",143.02286,79.14183,79.153984
"9790",143.03622,79.09544,79.08078
"9791",143.04953,79.061264,79.01833
"9792",143.0629,79.03929,78.967026
"9793",143.0762,79.0222,78.919914
"9794",143.08957,78.99779,78.864944
"9795",143.10287,78.97337,78.80921
"9796",143.11624,78.94408,78.74783
"9797",143.12955,78.91234,78.6831
"9798",143.14291,78.873276,78.61005
"9799",143.15622,78.839096,78.54066
"9800",143.16959,78.802475,78.46776
"9801",143.18289,78.765854,78.393715
"9802",143.19626,78.73167,78.32096
"9803",143.20956,78.695045,78.244705
"9804",143.22293,78.660866,78.16975
"9805",143.23624,78.626686,78.09372
"9806",143.2496,78.59495,78.019066
"9807",143.26291,78.56321,77.94342
"9808",143.27628,78.536354,77.871666
"9809",143.28958,78.51194,77.80151
"9810",143.30295,78.487526,77.7306
"9811",143.31625,78.46311,77.65892
"9812",143.32962,78.44114,77.58892
"9813",143.34293,78.41917,77.518234
"9814",143.3563,78.399635,77.4493
"9815",143.3696,78.38743,77.387085
"9816",143.38297,78.380104,77.32937
"9817",143.39627,78.37278,77.27142
"9818",143.40964,78.363014,77.21081
"9819",143.42294,78.35081,77.147446
"9820",143.43631,78.331276,77.07638
"9821",143.44962,78.32395,77.01691
"9822",143.46298,78.380104,77.02068
"9823",143.47629,78.57542,77.165375
"9824",143.48965,78.98802,77.53346
"9825",143.50296,79.64477,78.158585
"9826",143.51633,80.49439,78.99711
"9827",143.52963,81.4197,79.93787
"9828",143.543,82.266884,80.829414
"9829",143.5563,82.899216,81.532585
"9830",143.56967,83.23857,81.96254
"9831",143.58298,83.28985,82.11502
"9832",143.59634,83.11406,82.04204
"9833",143.60965,82.78203,81.80732
"9834",143.62302,82.36698,81.47921
"9835",143.63632,81.934845,81.12104
"9836",143.64969,81.529564,80.77622
"9837",143.663,81.180435,80.47489
"9838",143.67636,80.89967,80.23102
"9839",143.68967,80.68726,80.04672
"9840",143.70303,80.533455,79.91439
"9841",143.71634,80.430916,79.82852
"9842",143.7297,80.38209,79.79316
"9843",143.74301,80.38453,79.80754
"9844",143.75638,80.44068,79.87571
"9845",143.76968,80.5481,79.9969
"9846",143.78305,80.69459,80.160515
"9847",143.79636,80.848404,80.33604
"9848",143.80972,80.9778,80.49194
"9849",143.82303,81.05348,80.59818
"9850",143.8364,81.06813,80.64575
"9851",143.8497,81.01442,80.62542
"9852",143.86307,80.89967,80.54237
"9853",143.87637,80.73365,80.404465
"9854",143.88974,80.53834,80.23208
"9855",143.90305,80.323494,80.03406
"9856",143.91641,80.10376,79.82443
"9857",143.92972,79.89136,79.61527
"9858",143.94308,79.69848,79.419
"9859",143.95639,79.537346,79.24844
"9860",143.96976,79.40795,79.10459
"9861",143.98306,79.30785,78.98599
"9862",143.99643,79.23949,78.895996
"9863",144.00974,79.19554,78.828285
"9864",144.0231,79.168686,78.77629
"9865",144.0364,79.16136,78.74299
"9866",144.04977,79.166245,78.721664
"9867",144.06308,79.17601,78.705376
"9868",144.07645,79.19066,78.694275
"9869",144.08975,79.200424,78.67875
"9870",144.10312,79.202866,78.656204
"9871",144.11642,79.200424,78.62885
"9872",144.12979,79.18822,78.59166
"9873",144.1431,79.168686,78.54676
"9874",144.15646,79.14183,78.49393
"9875",144.16977,79.10765,78.43293
"9876",144.18314,79.06859,78.36598
"9877",144.19644,79.03197,78.300255
"9878",144.20981,79.00023,78.238266
"9879",144.22311,78.96849,78.175285
"9880",144.23648,78.94408,78.11864
"9881",144.24979,78.91966,78.061226
"9882",144.26315,78.89281,78.00061
"9883",144.27646,78.856186,77.92939
"9884",144.28983,78.81712,77.85458
"9885",144.30313,78.77074,77.77123
"9886",144.3165,78.71702,77.6791
"9887",144.3298,78.66575,77.58774
"9888",144.34317,78.64866,77.52895
"9889",144.35648,78.71946,77.557526
"9890",144.36984,78.95628,77.75433
"9891",144.38315,79.41039,78.17583
"9892",144.39651,80.07202,78.81903
"9893",144.40982,80.86061,79.60987
"9894",144.42319,81.651634,80.42779
"9895",144.4365,82.30839,81.136154
"9896",144.44986,82.72587,81.62577
"9897",144.46317,82.879684,81.86477
"9898",144.47653,82.804,81.879074
"9899",144.48984,82.55985,81.72255
"9900",144.5032,82.213165,81.45586
"9901",144.51651,81.81766,81.12951
"9902",144.52988,81.4197,80.78835
"9903",144.54318,81.04616,80.459175
"9904",144.55655,80.709236,80.154945
"9905",144.56985,80.41627,79.88414
"9906",144.58322,80.16235,79.643234
"9907",144.59653,79.954834,79.44079
"9908",144.6099,79.81079,79.295334
"9909",144.6232,79.74975,79.22838
"9910",144.63657,79.78882,79.25963
"9911",144.64987,79.92798,79.39219
"9912",144.66324,80.147705,79.609665
"9913",144.67654,80.4065,79.87308
"9914",144.68991,80.65308,80.13236
"9915",144.70322,80.84108,80.34077
"9916",144.71658,80.953384,80.479355
"9917",144.72989,80.96803,80.523796
"9918",144.74326,80.89479,80.480804
"9919",144.75656,80.75075,80.36472
"9920",144.76993,80.56275,80.20019
"9921",144.78323,80.35767,80.012695
"9922",144.7966,80.147705,79.8139
"9923",144.8099,79.94995,79.620766
"9924",144.82327,79.76929,79.43854
"9925",144.83658,79.605705,79.267746
"9926",144.84995,79.45922,79.10894
"9927",144.86325,79.33715,78.96997
"9928",144.87662,79.24193,78.854034
"9929",144.88992,79.17845,78.76687
"9930",144.90329,79.14671,78.70946
"9931",144.9166,79.13695,78.67303
"9932",144.92996,79.149155,78.658264
"9933",144.94327,79.17113,78.65365
"9934",144.95663,79.202866,78.659485
"9935",144.96994,79.23216,78.66387
"9936",144.9833,79.259026,78.66674
"9937",144.99661,79.276115,78.660675
"9938",145.00998,79.28832,78.65026
"9939",145.02328,79.28832,78.62802
"9940",145.03665,79.27856,78.596016
"9941",145.04996,79.256584,78.5515
"9942",145.06332,79.22484,78.49652
"9943",145.07663,79.185776,78.433235
"9944",145.09,79.13939,78.361404
"9945",145.1033,79.093,78.288124
"9946",145.11667,79.046616,78.213394
"9947",145.12997,79.012436,78.14942
"9948",145.14334,79.02464,78.13077
"9949",145.15665,79.13939,78.215034
"9950",145.17001,79.42016,78.46891
"9951",145.18332,79.8938,78.92443
"9952",145.19669,80.5359,79.56321
"9953",145.20999,81.25857,80.30263
"9954",145.22336,81.94217,81.02556
"9955",145.23666,82.46464,81.60872
"9956",145.25003,82.760056,81.981155
"9957",145.26334,82.82109,82.12844
"9958",145.2767,82.684364,82.07987
"9959",145.29001,82.406044,81.88544
"9960",145.30338,82.04471,81.59929
"9961",145.31668,81.651634,81.27011
"9962",145.33005,81.26101,80.9311
"9963",145.34335,80.88747,80.59696
"9964",145.35672,80.550545,80.28777
"9965",145.37003,80.2478,80.002235
"9966",145.38339,79.98657,79.74875
"9967",145.3967,79.781494,79.54325
"9968",145.41006,79.656975,79.4119
"9969",145.42337,79.63256,79.37677
"9970",145.43674,79.727776,79.4605
"9971",145.45004,79.92554,79.64976
"9972",145.46341,80.19165,79.91354
"9973",145.47672,80.47242,80.2003
"9974",145.49008,80.71412,80.456764
"9975",145.50339,80.8777,80.64266
"9976",145.51675,80.94118,80.73357
"9977",145.53006,80.91188,80.73368
"9978",145.54343,80.8069,80.657196
"9979",145.55673,80.64332,80.51883
"9980",145.5701,80.44312,80.33874
"9981",145.5834,80.22583,80.13529
"9982",145.59677,80.008545,79.925064
"9983",145.61008,79.79614,79.71293
"9984",145.62344,79.60082,79.51124
"9985",145.63675,79.42748,79.325424
"9986",145.65012,79.27856,79.15861
"9987",145.66342,79.15892,79.016426
"9988",145.67679,79.063705,78.89493
"9989",145.6901,78.99779,78.79975
"9990",145.70346,78.958725,78.72937
"9991",145.71677,78.94652,78.68462
"9992",145.73013,78.9514,78.656586
"9993",145.74344,78.975815,78.64823
"9994",145.7568,79.01976,78.66017
"9995",145.77011,79.06859,78.67837
"9996",145.78348,79.11742,78.69809
"9997",145.79678,79.16136,78.714455
"9998",145.81015,79.19066,78.717545
"9999",145.82346,79.19554,78.697136
"10000",145.83682,79.185776,78.66223
"10001",145.85013,79.15648,78.60749
"10002",145.8635,79.11253,78.537186
"10003",145.8768,79.061264,78.45818
"10004",145.89017,79.03197,78.39955
"10005",145.90347,79.07591,78.413246
"10006",145.91684,79.27123,78.57969
"10007",145.93015,79.693596,78.97928
"10008",145.94351,80.34791,79.624016
"10009",145.95682,81.17555,80.46253
"10010",145.97018,82.05936,81.38307
"10011",145.98349,82.845505,82.233574
"10012",145.99686,83.404594,82.881584
"10013",146.01016,83.685356,83.26874
"10014",146.02353,83.700005,83.39855
"10015",146.03683,83.50469,83.31886
"10016",146.0502,83.17265,83.096344
"10017",146.0635,82.76982,82.792656
"10018",146.07687,82.340126,82.44952
"10019",146.09018,81.9202,82.102715
"10020",146.10355,81.53689,81.77941
"10021",146.11685,81.20485,81.4954
"10022",146.13022,80.93141,81.25961
"10023",146.14352,80.71412,81.07143
"10024",146.15689,80.55543,80.93505
"10025",146.1702,80.462654,80.859634
"10026",146.18356,80.44068,80.85212
"10027",146.19687,80.49439,80.9196
"10028",146.21024,80.61158,81.05224
"10029",146.22354,80.76784,81.22761
"10030",146.23691,80.92897,81.412735
"10031",146.25021,81.058365,81.57116
"10032",146.26358,81.126724,81.67259
"10033",146.27689,81.12184,81.70292
"10034",146.29025,81.0486,81.664734
"10035",146.30356,80.90944,81.55834
"10036",146.31693,80.72144,81.398766
"10037",146.33023,80.49683,81.1967
"10038",146.3436,80.25269,80.96809
"10039",146.3569,80.008545,80.731834
"10040",146.37027,79.77173,80.495285
"10041",146.38358,79.55688,80.2733
"10042",146.39694,79.36889,80.071465
"10043",146.41025,79.21019,79.89304
"10044",146.42361,79.08324,79.74141
"10045",146.43692,78.9807,79.61022
"10046",146.45029,78.907455,79.50513
"10047",146.4636,78.853745,79.417274
"10048",146.47696,78.82201,79.34972
"10049",146.49026,78.80736,79.298256
"10050",146.50363,78.80003,79.25366
"10051",146.51694,78.79515,79.21128
"10052",146.5303,78.78783,79.166306
"10053",146.54361,78.77806,79.11866
"10054",146.55698,78.75853,79.06094
"10055",146.57028,78.73655,79.00017
"10056",146.58365,78.70725,78.93139
"10057",146.59695,78.675514,78.85925
"10058",146.61032,78.63645,78.7788
"10059",146.62363,78.58762,78.68736
"10060",146.637,78.53391,78.589516
"10061",146.6503,78.47776,78.48755
"10062",146.66367,78.42161,78.38383
"10063",146.67697,78.39231,78.30521
"10064",146.69034,78.450905,78.31356
"10065",146.70364,78.68528,78.49953
"10066",146.71701,79.15648,78.92964
"10067",146.73032,79.871826,79.61863
"10068",146.74368,80.75563,80.49843
"10069",146.75699,81.67849,81.4449
"10070",146.77036,82.4744,82.29327
"10071",146.78366,83.021286,82.91747
"10072",146.79703,83.26299,83.25359
"10073",146.81033,83.228806,83.32137
"10074",146.8237,82.98711,83.18057
"10075",146.837,82.60868,82.89549
"10076",146.85037,82.161896,82.53023
"10077",146.86368,81.71023,82.14612
"10078",146.87704,81.287865,81.7772
"10079",146.89035,80.92897,81.45855
"10080",146.90372,80.65064,81.20925
"10081",146.91702,80.45533,81.03427
"10082",146.93039,80.325935,80.919106
"10083",146.9437,80.2478,80.85116
"10084",146.95706,80.20386,80.81496
"10085",146.97037,80.19409,80.81156
"10086",146.98373,80.218506,80.84204
"10087",146.99704,80.26734,80.897705
"10088",147.0104,80.32838,80.967094
"10089",147.02371,80.38697,81.03595
"10090",147.03708,80.41627,81.07734
"10091",147.05038,80.40162,81.0757
"10092",147.06375,80.3357,81.02233
"10093",147.07706,80.22339,80.92051
"10094",147.09042,80.06958,80.77368
"10095",147.10373,79.88403,80.59031
"10096",147.1171,79.67895,80.3816
"10097",147.1304,79.47143,80.16405
"10098",147.14377,79.26879,79.94489
"10099",147.15707,79.078354,79.731606
"10100",147.17044,78.907455,79.531906
"10101",147.18375,78.75853,79.34884
"10102",147.19711,78.62913,79.18064
"10103",147.21042,78.52415,79.03282
"10104",147.22379,78.44114,78.903694
"10105",147.23709,78.382545,78.79639
"10106",147.25046,78.3386,78.7019
"10107",147.26376,78.314186,78.625565
"10108",147.27713,78.30198,78.56068
"10109",147.29044,78.294655,78.50029
"10110",147.3038,78.28489,78.43723
"10111",147.31711,78.277565,78.37631
"10112",147.33047,78.26292,78.30784
"10113",147.34378,78.24338,78.23402
"10114",147.35715,78.221405,78.15715
"10115",147.37045,78.204315,78.08448
"10116",147.38382,78.184784,78.008835
"10117",147.39713,78.16281,77.93014
"10118",147.41049,78.14328,77.853195
"10119",147.4238,78.12131,77.7732
"10120",147.43716,78.09689,77.69008
"10121",147.45047,78.07736,77.61108
"10122",147.46384,78.065155,77.53879
"10123",147.47714,78.05295,77.46612
"10124",147.49051,78.048065,77.40039
"10125",147.50381,78.04562,77.33695
"10126",147.51718,78.0383,77.268555
"10127",147.53049,78.028534,77.19749
"10128",147.54385,78.01877,77.126114
"10129",147.55716,78.011444,77.05688
"10130",147.57053,78.04074,77.02403
"10131",147.58383,78.18234,77.10441
"10132",147.5972,78.53147,77.396736
"10133",147.6105,79.132065,77.95144
"10134",147.62387,79.957275,78.74953
"10135",147.63718,80.89967,79.69059
"10136",147.65054,81.80545,80.62448
"10137",147.66385,82.5037,81.37915
"10138",147.67722,82.89189,81.84558
"10139",147.69052,82.96025,82.00431
"10140",147.70389,82.76982,81.90639
"10141",147.7172,82.4036,81.626724
"10142",147.73056,81.94461,81.24284
"10143",147.74387,81.463646,80.82265
"10144",147.75723,81.004654,80.40939
"10145",147.77054,80.6067,80.04283
"10146",147.7839,80.29664,79.75173
"10147",147.79721,80.08179,79.54615
"10148",147.81058,79.954834,79.42175
"10149",147.82388,79.89624,79.36175
"10150",147.83725,79.886475,79.34874
"10151",147.85056,79.91821,79.37693
"10152",147.86392,79.97925,79.43541
"10153",147.87723,80.06958,79.52509
"10154",147.8906,80.17456,79.63225
"10155",147.9039,80.27955,79.74269
"10156",147.91727,80.35523,79.82711
"10157",147.93057,80.39185,79.87483
"10158",147.94394,80.36988,79.865105
"10159",147.95724,80.29664,79.80342
"10160",147.97061,80.17944,79.695496
"10161",147.98392,80.03052,79.55218
"10162",147.99728,79.86206,79.384674
"10163",148.01059,79.68139,79.19969
"10164",148.02396,79.500725,79.00907
"10165",148.03726,79.33227,78.82501
"10166",148.05063,79.17601,78.64789
"10167",148.06393,79.04173,78.48786
"10168",148.0773,78.93187,78.34805
"10169",148.0906,78.853745,78.23655
"10170",148.10397,78.79759,78.14458
"10171",148.11728,78.768295,78.077705
"10172",148.13065,78.75365,78.02457
"10173",148.14395,78.751205,77.98318
"10174",148.15732,78.75365,77.946594
"10175",148.17062,78.75609,77.91009
"10176",148.18399,78.751205,77.86633
"10177",148.1973,78.74387,77.81998
"10178",148.21066,78.73167,77.76852
"10179",148.22397,78.71946,77.716675
"10180",148.23734,78.70725,77.66445
"10181",148.25064,78.70237,77.61917
"10182",148.264,78.69993,77.57618
"10183",148.27731,78.70237,77.537994
"10184",148.29068,78.70237,77.497444
"10185",148.30399,78.69993,77.45445
"10186",148.31735,78.695045,77.40894
"10187",148.33066,78.68284,77.35596
"10188",148.34402,78.67063,77.30259
"10189",148.35733,78.65598,77.2464
"10190",148.3707,78.641335,77.18975
"10191",148.384,78.626686,77.132645
"10192",148.39737,78.61204,77.07508
"10193",148.41068,78.59739,77.01706
"10194",148.42404,78.58518,76.96102
"10195",148.43735,78.59739,76.929016
"10196",148.45071,78.692604,76.9804
"10197",148.46402,78.94896,77.1959
"10198",148.47739,79.42748,77.64158
"10199",148.49069,80.128174,78.32438
"10200",148.50406,80.96559,79.1658
"10201",148.51736,81.80301,80.033394
"10202",148.53073,82.48417,80.7709
"10203",148.54404,82.89433,81.25869
"10204",148.5574,83.004196,81.459
"10205",148.57071,82.85527,81.40395
"10206",148.58408,82.53544,81.17335
"10207",148.59738,82.11551,80.83265
"10208",148.61075,81.66628,80.44953
"10209",148.62405,81.234146,80.069466
"10210",148.63742,80.848404,79.72229
"10211",148.65073,80.52857,79.42897
"10212",148.6641,80.289314,79.20623
"10213",148.6774,80.12573,79.05169
"10214",148.69077,80.025635,78.95552
"10215",148.70407,79.991455,78.92214
"10216",148.71744,80.01831,78.94873
"10217",148.73074,80.10132,79.03231
"10218",148.74411,80.23071,79.16487
"10219",148.75742,80.39185,79.33322
"10220",148.77078,80.552986,79.5066
"10221",148.78409,80.68482,79.655716
"10222",148.79745,80.75807,79.75037
"10223",148.81076,80.76051,79.7765
"10224",148.82413,80.69459,79.73434
"10225",148.83743,80.570076,79.63153
"10226",148.8508,80.396736,79.476006
"10227",148.8641,80.198975,79.29064
"10228",148.87747,79.99634,79.09422
"10229",148.89078,79.80591,78.90368
"10230",148.90414,79.63744,78.72915
"10231",148.91745,79.49584,78.57622
"10232",148.93082,79.38598,78.4506
"10233",148.94412,79.29565,78.34108
"10234",148.95749,79.22484,78.24826
"10235",148.9708,79.17845,78.17765
"10236",148.98416,79.149155,78.12268
"10237",148.99747,79.13695,78.083885
"10238",149.01083,79.13451,78.054474
"10239",149.02414,79.14183,78.03475
"10240",149.0375,79.149155,78.01526
"10241",149.05081,79.15648,77.995995
"10242",149.06418,79.15892,77.97208
"10243",149.07748,79.16136,77.948235
"10244",149.09085,79.15404,77.9147
"10245",149.10416,79.14183,77.87606
"10246",149.11752,79.1223,77.82971
"10247",149.13083,79.093,77.77299
"10248",149.1442,79.05638,77.70802
"10249",149.1575,79.02464,77.6468
"10250",149.17087,79.0222,77.61388
"10251",149.18417,79.093,77.65412
"10252",149.19754,79.30297,77.83575
"10253",149.21085,79.691154,78.20215
"10254",149.22421,80.24292,78.74426
"10255",149.23752,80.88991,79.39884
"10256",149.25089,81.52712,80.063866
"10257",149.26419,82.037384,80.62185
"10258",149.27756,82.32792,80.97605
"10259",149.29086,82.38651,81.10739
"10260",149.30423,82.24246,81.03792
"10261",149.31754,81.95682,80.82235
"10262",149.3309,81.58816,80.51484
"10263",149.34421,81.1902,80.16651
"10264",149.35757,80.80202,79.81552
"10265",149.37088,80.445564,79.48413
"10266",149.38425,80.147705,79.200195
"10267",149.39755,79.91333,78.970436
"10268",149.41092,79.742424,78.79682
"10269",149.42422,79.63256,78.67891
"10270",149.43759,79.59106,78.62592
"10271",149.4509,79.62035,78.64244
"10272",149.46426,79.71801,78.72823
"10273",149.47757,79.87427,78.87568
"10274",149.49094,80.05737,79.054855
"10275",149.50424,80.24292,79.242195
"10276",149.51761,80.38941,79.39628
"10277",149.53091,80.479744,79.49878
"10278",149.54428,80.50172,79.53574
"10279",149.55759,80.45777,79.50748
"10280",149.57095,80.35523,79.41924
"10281",149.58426,80.20874,79.28385
"10282",149.59763,80.04028,79.12192
"10283",149.61093,79.85962,78.94251
"10284",149.6243,79.68871,78.76722
"10285",149.6376,79.534904,78.60368
"10286",149.65097,79.40551,78.459755
"10287",149.66428,79.30541,78.34108
"10288",149.67764,79.22972,78.24368
"10289",149.69095,79.185776,78.17567
"10290",149.70432,79.1638,78.12825
"10291",149.71762,79.15648,78.094795
"10292",149.73099,79.1638,78.07576
"10293",149.7443,79.18089,78.06672
"10294",149.75766,79.19798,78.05821
"10295",149.77097,79.217514,78.05268
"10296",149.78433,79.22728,78.037994
"10297",149.79764,79.22972,78.01629
"10298",149.811,79.219955,77.98245
"10299",149.82431,79.20775,77.94587
"10300",149.83768,79.202866,77.91623
"10301",149.85098,79.234604,77.92306
"10302",149.86435,79.361565,78.0261
"10303",149.87766,79.63256,78.277145
"10304",149.89102,80.0647,78.6978
"10305",149.90433,80.62867,79.263794
"10306",149.9177,81.234146,79.888916
"10307",149.931,81.76883,80.462166
"10308",149.94437,82.13748,80.88609
"10309",149.95767,82.29374,81.109146
"10310",149.97104,82.24246,81.12955
"10311",149.98434,82.037384,80.994545
"10312",149.99771,81.72976,80.75059
"10313",150.01102,81.37087,80.445755
"10314",150.02438,80.99977,80.11749
"10315",150.03769,80.65308,79.80205
"10316",150.05106,80.34791,79.51728
"10317",150.06436,80.08667,79.266914
"10318",150.07773,79.87915,79.0621
"10319",150.09103,79.725334,78.90451
"10320",150.1044,79.62524,78.79583
"10321",150.1177,79.59838,78.75726
"10322",150.13107,79.65942,78.80575
"10323",150.14438,79.81079,78.94648
"10324",150.15775,80.025635,79.15541
"10325",150.17105,80.26978,79.40036
"10326",150.18442,80.48951,79.62852
"10327",150.19772,80.65064,79.80495
"10328",150.21109,80.726326,79.90096
"10329",150.2244,80.71412,79.91145
"10330",150.23776,80.63111,79.85076
"10331",150.25107,80.49439,79.733765
"10332",150.26443,80.32105,79.575874
"10333",150.27774,80.13306,79.39791
"10334",150.2911,79.94507,79.21408
"10335",150.30441,79.77173,79.039024
"10336",150.31778,79.61791,78.878075
"10337",150.33109,79.4934,78.74162
"10338",150.34445,79.3933,78.625694
"10339",150.35776,79.3225,78.535934
"10340",150.37112,79.273674,78.465935
"10341",150.38443,79.2517,78.421265
"10342",150.3978,79.24437,78.39055
"10343",150.4111,79.25414,78.37671
"10344",150.42447,79.273674,78.37293
"10345",150.43777,79.29809,78.37465
"10346",150.45114,79.327385,78.38201
"10347",150.46445,79.34936,78.382965
"10348",150.47781,79.36889,78.382164
"10349",150.49112,79.37621,78.36977
"10350",150.50449,79.37133,78.34539
"10351",150.51779,79.364006,78.31842
"10352",150.53116,79.3933,78.32784
"10353",150.54446,79.51537,78.430954
"10354",150.55783,79.79126,78.691696
"10355",150.57114,80.25025,79.144165
"10356",150.5845,80.85329,79.75502
"10357",150.59781,81.5198,80.4482
"10358",150.61118,82.12039,81.09628
"10359",150.62448,82.55009,81.59224
"10360",150.63785,82.74296,81.8648
"10361",150.65115,82.70634,81.913895
"10362",150.66452,82.48905,81.78118
"10363",150.67783,82.15457,81.52448
"10364",150.6912,81.76395,81.20119
"10365",150.7045,81.37087,80.863235
"10366",150.71786,81.00221,80.537415
"10367",150.73117,80.67506,80.24158
"10368",150.74454,80.394295,79.98191
"10369",150.75784,80.15259,79.752525
"10370",150.77121,79.96216,79.566864
"10371",150.78452,79.83276,79.43629
"10372",150.79788,79.79126,79.38956
"10373",150.81119,79.84985,79.44163
"10374",150.82455,80.00366,79.590744
"10375",150.83786,80.22583,79.81303
"10376",150.85123,80.47242,80.06667
"10377",150.86453,80.70191,80.31093
"10378",150.8779,80.87526,80.50621
"10379",150.8912,80.96803,80.626335
"10380",150.90457,80.97536,80.66391
"10381",150.91788,80.907,80.62603
"10382",150.93124,80.77272,80.520096
"10383",150.94455,80.601814,80.37334
"10384",150.95792,80.413826,80.204155
"10385",150.97122,80.218506,80.02177
"10386",150.98459,80.03052,79.84061
"10387",150.9979,79.85718,79.66822
"10388",151.01126,79.69848,79.50506
"10389",151.02457,79.5642,79.36136
"10390",151.03793,79.45434,79.23788
"10391",151.05124,79.37377,79.14026
"10392",151.0646,79.32006,79.06698
"10393",151.07791,79.293205,79.018875
"10394",151.09128,79.28588,78.98946
"10395",151.10458,79.29809,78.979355
"10396",151.11795,79.327385,78.98672
"10397",151.13126,79.35912,78.99744
"10398",151.14462,79.38354,79.00182
"10399",151.15793,79.398186,78.99721
"10400",151.1713,79.40307,78.983284
"10401",151.1846,79.39086,78.95242
"10402",151.19797,79.378654,78.92118
"10403",151.21127,79.395744,78.91885
"10404",151.22464,79.500725,79.00495
"10405",151.23795,79.74975,79.23837
"10406",151.25131,80.184326,79.66513
"10407",151.26462,80.78493,80.27149
"10408",151.27798,81.46853,80.97962
"10409",151.29129,82.11063,81.66761
"10410",151.30466,82.59647,82.21941
"10411",151.31796,82.85283,82.55691
"10412",151.33133,82.86992,82.66315
"10413",151.34464,82.69413,82.57704
"10414",151.358,82.38651,82.353615
"10415",151.3713,82.01541,82.05709
"10416",151.38467,81.62722,81.73188
"10417",151.39798,81.25857,81.41408
"10418",151.41135,80.93141,81.12625
"10419",151.42465,80.65064,80.87459
"10420",151.43802,80.41627,80.660545
"10421",151.45132,80.22827,80.48556
"10422",151.46469,80.10132,80.36574
"10423",151.478,80.05249,80.320076
"10424",151.49136,80.096436,80.36566
"10425",151.50467,80.23804,80.51028
"10426",151.51804,80.45533,80.73501
"10427",151.53134,80.71168,81.005585
"10428",151.54471,80.95827,81.274414
"10429",151.55801,81.15114,81.49723
"10430",151.57138,81.25857,81.64063
"10431",151.58469,81.27322,81.69461
"10432",151.59805,81.19997,81.66115
"10433",151.61136,81.05592,81.5546
"10434",151.62473,80.867935,81.39961
"10435",151.63803,80.65308,81.21188
"10436",151.6514,80.428474,81.00768
"10437",151.6647,80.21362,80.80622
"10438",151.67807,80.01099,80.61026
"10439",151.69138,79.83032,80.42994
"10440",151.70474,79.674065,80.26838
"10441",151.71805,79.54223,80.12636
"10442",151.73141,79.43725,80.00707
"10443",151.74472,79.35912,79.91136
"10444",151.75809,79.30785,79.840065
"10445",151.7714,79.27856,79.78914
"10446",151.78476,79.273674,79.76171
"10447",151.79807,79.281,79.74634
"10448",151.81143,79.293205,79.73608
"10449",151.82474,79.30297,79.723755
"10450",151.8381,79.30053,79.69953
"10451",151.85141,79.28832,79.66547
"10452",151.86478,79.26147,79.61637
"10453",151.87808,79.22484,79.55666
"10454",151.89145,79.183334,79.49094
"10455",151.90475,79.17113,79.45321
"10456",151.91812,79.25414,79.51032
"10457",151.93143,79.50561,79.73848
"10458",151.9448,79.971924,80.18935
"10459",151.9581,80.64332,80.85986
"10460",151.97147,81.43435,81.671
"10461",151.98477,82.213165,82.49464
"10462",151.99814,82.84306,83.193695
"10463",152.01144,83.23125,83.67072
"10464",152.02481,83.353325,83.893776
"10465",152.03812,83.24834,83.89358
"10466",152.05148,82.97978,83.72653
"10467",152.06479,82.616005,83.45587
"10468",152.07816,82.213165,83.13478
"10469",152.09146,81.8201,82.810875
"10470",152.10483,81.463646,82.5113
"10471",152.11813,81.163345,82.25674
"10472",152.1315,80.91676,82.04651
"10473",152.1448,80.72144,81.87984
"10474",152.15817,80.58228,81.76322
"10475",152.17148,80.50172,81.70085
"10476",152.18484,80.49195,81.706764
"10477",152.19815,80.552986,81.78317
"10478",152.21152,80.6775,81.924965
"10479",152.22482,80.8362,82.104836
"10480",152.23819,80.99733,82.2921
"10481",152.2515,81.126724,82.45266
"10482",152.26486,81.19508,82.55623
"10483",152.27817,81.18532,82.58381
"10484",152.29153,81.09743,82.53296
"10485",152.30484,80.94118,82.411
"10486",152.3182,80.743416,82.24265
"10487",152.33151,80.52125,82.04372
"10488",152.34488,80.289314,81.82807
"10489",152.35818,80.06958,81.61738
"10490",152.37155,79.8645,81.414474
"10491",152.38486,79.676506,81.222244
"10492",152.39822,79.517815,81.053444
"10493",152.41153,79.38354,80.9041
"10494",152.4249,79.276115,80.77741
"10495",152.4382,79.19066,80.669334
"10496",152.45157,79.12474,80.578125
"10497",152.46487,79.07347,80.499504
"10498",152.47824,79.03685,80.43393
"10499",152.49155,79.009995,80.376976
"10500",152.50491,78.98802,80.324066
"10501",152.51822,78.97093,80.27535
"10502",152.53159,78.95384,80.226105
"10503",152.54489,78.93431,80.17388
"10504",152.55826,78.90257,80.10884
"10505",152.57156,78.86351,80.035484
"10506",152.58493,78.81712,79.95358
"10507",152.59824,78.768295,79.86779
"10508",152.6116,78.71946,79.780464
"10509",152.62491,78.67307,79.69406
"10510",152.63828,78.62913,79.60865
"10511",152.65158,78.590065,79.52675
"10512",152.66495,78.54612,79.43874
"10513",152.67825,78.49973,79.346924
"10514",152.69162,78.45823,79.25854
"10515",152.70493,78.41184,79.16397
"10516",152.71829,78.3679,79.0704
"10517",152.7316,78.32395,78.97545
"10518",152.74496,78.28001,78.87913
"10519",152.75827,78.24826,78.79363
"10520",152.77164,78.28245,78.77308
"10521",152.78494,78.47532,78.91228
"10522",152.79831,78.91234,79.30165
"10523",152.81161,79.622795,79.97812
"10524",152.82498,80.55787,80.901405
"10525",152.83829,81.58572,81.946686
"10526",152.85165,82.528114,82.93864
"10527",152.86496,83.23125,83.72077
"10528",152.87833,83.612114,84.202614
"10529",152.89163,83.67315,84.376526
"10530",152.905,83.48272,84.30088
"10531",152.9183,83.12627,84.05326
"10532",152.93167,82.684364,83.70905
"10533",152.94498,82.22049,83.32906
"10534",152.95834,81.7908,82.968765
"10535",152.97165,81.427025,82.66095
"10536",152.98502,81.146255,82.424774
"10537",152.99832,80.94118,82.255516
"10538",153.01169,80.80446,82.14821
"10539",153.025,80.719,82.08789
"10540",153.03836,80.66773,82.05909
"10541",153.05167,80.64088,82.0531
"10542",153.06503,80.64576,82.07801
"10543",153.07834,80.67506,82.12749
"10544",153.0917,80.71168,82.1852
"10545",153.10501,80.740974,82.23674
"10546",153.11838,80.74586,82.26478
"10547",153.13168,80.71168,82.25391
"10548",153.14505,80.62623,82.1907
"10549",153.15836,80.49439,82.07843
"10550",153.17172,80.325935,81.92542
"10551",153.18503,80.130615,81.74029
"10552",153.1984,79.91577,81.529526
"10553",153.2117,79.69848,81.3096
"10554",153.22507,79.483635,81.085335
"10555",153.23837,79.28344,80.869
"10556",153.25174,79.097885,80.66106
"10557",153.26505,78.93675,80.47173
"10558",153.27841,78.79759,80.29935
"10559",153.29172,78.68528,80.14946
"10560",153.30508,78.59495,80.01804
"10561",153.31839,78.52903,79.90822
"10562",153.33176,78.47532,79.80854
"10563",153.34506,78.43626,79.72183
"10564",153.35843,78.40452,79.64123
"10565",153.37173,78.37522,79.56207
"10566",153.3851,78.345924,79.482
"10567",153.3984,78.314186,79.398575
"10568",153.41177,78.277565,79.30927
"10569",153.42508,78.23605,79.213936
"10570",153.43845,78.19211,79.11487
"10571",153.45175,78.153046,79.01931
"10572",153.46512,78.11154,78.92009
"10573",153.47842,78.07248,78.822014
"10574",153.49179,78.03586,78.72516
"10575",153.5051,77.99924,78.62716
"10576",153.51846,77.962616,78.528015
"10577",153.53177,77.92111,78.422844
"10578",153.54514,77.87961,78.316376
"10579",153.55844,77.84543,78.215935
"10580",153.57181,77.81369,78.11687
"10581",153.58511,77.786835,78.02169
"10582",153.59848,77.7673,77.933
"10583",153.61179,77.752655,77.84858
"10584",153.62515,77.74288,77.76858
"10585",153.63846,77.73556,77.69072
"10586",153.65182,77.73556,77.61996
"10587",153.66513,77.73556,77.549194
"10588",153.6785,77.73556,77.47843
"10589",153.6918,77.733116,77.40523
"10590",153.70517,77.73556,77.33683
"10591",153.71848,77.74288,77.27339
"10592",153.73184,77.75998,77.219955
"10593",153.74515,77.78195,77.17193
"10594",153.75851,77.803925,77.12459
"10595",153.77182,77.81613,77.06817
"10596",153.78519,77.823456,77.00725
"10597",153.7985,77.84543,76.961205
"10598",153.81186,77.93332,76.981766
"10599",153.82516,78.18234,77.16621
"10600",153.83853,78.66819,77.59525
"10601",153.85184,79.42016,78.3056
"10602",153.8652,80.377205,79.24453
"10603",153.87851,81.41482,80.29393
"10604",153.89188,82.34745,81.270775
"10605",153.90518,83.02617,82.02285
"10606",153.91855,83.36797,82.45922
"10607",153.93185,83.38262,82.57912
"10608",153.94522,83.140915,82.443115
"10609",153.95853,82.74052,82.14087
"10610",153.9719,82.25956,81.74555
"10611",153.9852,81.76395,81.32055
"10612",153.99857,81.304955,80.91668
"10613",154.01187,80.919205,80.57171
"10614",154.02524,80.62623,80.30746
"10615",154.03854,80.43336,80.134155
"10616",154.05191,80.323494,80.037834
"10617",154.06522,80.27711,80.00156
"10618",154.07858,80.28199,80.0151
"10619",154.09189,80.325935,80.067856
"10620",154.10526,80.39918,80.15128
"10621",154.11856,80.49439,80.25897
"10622",154.13193,80.59693,80.37696
"10623",154.14523,80.689705,80.48839
"10624",154.1586,80.73853,80.55877
"10625",154.1719,80.740974,80.58429
"10626",154.18527,80.68726,80.553734
"10627",154.19858,80.587166,80.47511
"10628",154.21194,80.45045,80.35674
"10629",154.22525,80.28199,80.20236
"10630",154.23862,80.09155,80.02074
"10631",154.25192,79.89868,79.83073
"10632",154.26529,79.71313,79.642006
"10633",154.2786,79.53979,79.4597
"10634",154.29196,79.38598,79.29151
"10635",154.30527,79.259026,79.14537
"10636",154.31863,79.15404,79.01723
"10637",154.33194,79.07103,78.90778
"10638",154.3453,79.009995,78.81772
"10639",154.35861,78.96849,78.74528
"10640",154.37198,78.93675,78.681305
"10641",154.38528,78.91966,78.63099
"10642",154.39865,78.907455,78.58502
"10643",154.41196,78.90013,78.54356
"10644",154.42532,78.890366,78.49942
"10645",154.43863,78.87816,78.45254
"10646",154.452,78.85863,78.39795
"10647",154.4653,78.84154,78.34519
"10648",154.47867,78.819565,78.28702
"10649",154.49197,78.802475,78.23304
"10650",154.50534,78.78294,78.17609
"10651",154.51865,78.76097,78.11608
"10652",154.53201,78.73899,78.05538
"10653",154.54532,78.71702,77.994
"10654",154.55869,78.695045,77.93194
"10655",154.57199,78.67307,77.86919
"10656",154.58536,78.6511,77.80575
"10657",154.59866,78.624245,77.73674
"10658",154.61203,78.59495,77.66445
"10659",154.62534,78.56565,77.59125
"10660",154.6387,78.54124,77.52201
"10661",154.65201,78.519264,77.45445
"10662",154.66537,78.504616,77.39353
"10663",154.67868,78.49485,77.337036
"10664",154.69205,78.49485,77.29
"10665",154.70535,78.49485,77.242966
"10666",154.71872,78.48997,77.19105
"10667",154.73203,78.48264,77.136536
"10668",154.74539,78.470436,77.07691
"10669",154.7587,78.46311,77.02179
"10670",154.77206,78.467995,76.978645
"10671",154.78537,78.538795,77.00157
"10672",154.79874,78.75609,77.1732
"10673",154.81204,79.19554,77.573784
"10674",154.82541,79.87671,78.22981
"10675",154.83871,80.7483,79.09755
"10676",154.85208,81.6907,80.06333
"10677",154.86539,82.53544,80.96091
"10678",154.87875,83.140915,81.645615
"10679",154.89206,83.43389,82.03674
"10680",154.90543,83.42901,82.13917
"10681",154.91873,83.192184,82.0095
"10682",154.9321,82.80156,81.71863
"10683",154.9454,82.33524,81.33986
"10684",154.95877,81.85428,80.93187
"10685",154.97208,81.39773,80.533264
"10686",154.98544,80.99977,80.178986
"10687",154.99875,80.68238,79.89284
"10688",155.01212,80.445564,79.677345
"10689",155.02542,80.28199,79.527695
"10690",155.03879,80.19165,79.44617
"10691",155.0521,80.164795,79.4253
"10692",155.06546,80.20874,79.474396
"10693",155.07877,80.31617,79.58835
"10694",155.09213,80.479744,79.7618
"10695",155.10544,80.67017,79.967224
"10696",155.1188,80.850845,80.16884
"10697",155.13211,80.98512,80.329704
"10698",155.14548,81.0486,80.423965
"10699",155.15878,81.03395,80.442085
"10700",155.17215,80.94118,80.38162
"10701",155.18546,80.79469,80.26455
"10702",155.19882,80.61158,80.10627
"10703",155.21213,80.40894,79.922745
"10704",155.2255,80.2063,79.73288
"10705",155.2388,80.01587,79.5489
"10706",155.25217,79.84497,79.378494
"10707",155.26547,79.69604,79.22472
"10708",155.27884,79.56664,79.08582
"10709",155.29214,79.46166,78.9673
"10710",155.30551,79.37621,78.86503
"10711",155.31882,79.31274,78.78206
"10712",155.33218,79.26635,78.714195
"10713",155.34549,79.24437,78.66929
"10714",155.35886,79.23216,78.63347
"10715",155.37216,79.234604,78.611916
"10716",155.38553,79.24193,78.59532
"10717",155.39883,79.24681,78.576515
"10718",155.4122,79.24193,78.548096
"10719",155.4255,79.234604,78.51708
"10720",155.43887,79.2224,78.48096
"10721",155.45218,79.20531,78.43957
"10722",155.46555,79.185776,78.3952
"10723",155.47885,79.1638,78.347786
"10724",155.49222,79.14183,78.29968
"10725",155.50552,79.11986,78.25089
"10726",155.51889,79.10033,78.20386
"10727",155.5322,79.08324,78.15865
"10728",155.54556,79.06859,78.11536
"10729",155.55887,79.0515,78.06916
"10730",155.57224,79.03685,78.02487
"10731",155.58554,79.01488,77.9728
"10732",155.5989,78.992905,77.920044
"10733",155.61221,78.96849,77.86416
"10734",155.62558,78.9514,77.814835
"10735",155.63889,78.93675,77.76742
"10736",155.65225,78.92943,77.72687
"10737",155.66556,78.924545,77.68853
"10738",155.67892,78.924545,77.65492
"10739",155.69223,78.91966,77.61643
"10740",155.7056,78.9099,77.57291
"10741",155.7189,78.90257,77.53152
"10742",155.73227,78.93187,77.52652
"10743",155.74557,79.07103,77.6323
"10744",155.75894,79.41039,77.942635
"10745",155.77225,79.991455,78.50527
"10746",155.78561,80.78981,79.30336
"10747",155.79892,81.70779,80.24602
"10748",155.81229,82.58671,81.17831
"10749",155.82559,83.27276,81.94519
"10750",155.83896,83.665825,82.44053
"10751",155.85226,83.75128,82.64054
"10752",155.86563,83.577934,82.58442
"10753",155.87894,83.226364,82.34466
"10754",155.8923,82.777145,81.99626
"10755",155.90561,82.28886,81.59476
"10756",155.91898,81.815216,81.19264
"10757",155.93228,81.38552,80.81967
"10758",155.94565,81.0193,80.49675
"10759",155.95895,80.723885,80.233185
"10760",155.97232,80.50172,80.03364
"10761",155.98563,80.34547,79.89307
"10762",155.999,80.26734,79.82574
"10763",156.0123,80.274666,79.841415
"10764",156.02567,80.36744,79.94277
"10765",156.03897,80.54078,80.127594
"10766",156.05234,80.765396,80.36911
"10767",156.06564,80.99977,80.6274
"10768",156.07901,81.19264,80.85152
"10769",156.09232,81.31228,81.00842
"10770",156.10568,81.33669,81.073845
"10771",156.11899,81.27566,81.05458
"10772",156.13235,81.14137,80.96016
"10773",156.14566,80.95827,80.81272
"10774",156.15903,80.743416,80.627815
"10775",156.17233,80.52613,80.43376
"10776",156.1857,80.31129,80.23536
"10777",156.199,80.111084,80.04488
"10778",156.21237,79.93042,79.86769
"10779",156.22568,79.76929,79.704384
"10780",156.23904,79.62768,79.555565
"10781",156.25235,79.50561,79.42186
"10782",156.26572,79.40307,79.30387
"10783",156.27902,79.30297,79.18512
"10784",156.29239,79.20775,79.068115
"10785",156.3057,79.11742,78.953026
"10786",156.31906,79.04173,78.84976
"10787",156.33237,78.98314,78.76122
"10788",156.34573,78.94408,78.690384
"10789",156.35904,78.91722,78.63053
"10790",156.3724,78.90013,78.579605
"10791",156.38571,78.88304,78.528145
"10792",156.39908,78.86107,78.47127
"10793",156.41238,78.83177,78.40638
"10794",156.42575,78.80492,78.34302
"10795",156.43906,78.77562,78.276375
"10796",156.45242,78.74387,78.20637
"10797",156.46573,78.712135,78.135376
"10798",156.4791,78.69016,78.07316
"10799",156.4924,78.675514,78.01758
"10800",156.50577,78.67307,77.97375
"10801",156.51907,78.6804,77.939606
"10802",156.53244,78.69016,77.908134
"10803",156.54575,78.69749,77.87453
"10804",156.55911,78.69993,77.836266
"10805",156.57242,78.695045,77.79076
"10806",156.58578,78.69016,77.745094
"10807",156.59909,78.68284,77.69684
"10808",156.61246,78.67307,77.64591
"10809",156.62576,78.66819,77.59956
"10810",156.63913,78.677956,77.56771
"10811",156.65244,78.73899,77.58743
"10812",156.6658,78.92699,77.73602
"10813",156.67911,79.32006,78.095566
"10814",156.69247,79.94751,78.70177
"10815",156.70578,80.77516,79.52778
"10816",156.71915,81.69802,80.47486
"10817",156.73245,82.564735,81.39464
"10818",156.74582,83.23125,82.1413
"10819",156.75912,83.60967,82.6207
"10820",156.77249,83.69756,82.82139
"10821",156.7858,83.546196,82.78557
"10822",156.79916,83.23369,82.58388
"10823",156.81247,82.82597,82.277214
"10824",156.82584,82.37919,81.91874
"10825",156.83914,81.92996,81.54386
"10826",156.85251,81.50759,81.1818
"10827",156.86581,81.13405,80.85537
"10828",156.87918,80.82399,80.58075
"10829",156.89249,80.5774,80.35991
"10830",156.90585,80.40406,80.20461
"10831",156.91916,80.308846,80.122025
"10832",156.93253,80.30396,80.12679
"10833",156.94583,80.38941,80.22174
"10834",156.9592,80.5481,80.3926
"10835",156.9725,80.76051,80.62214
"10836",156.98587,80.9778,80.86319
"10837",156.99918,81.15602,81.07197
"10838",157.01254,81.26101,81.21308
"10839",157.02585,81.26833,81.25981
"10840",157.03922,81.18776,81.21887
"10841",157.05252,81.03151,81.09974
"10842",157.06589,80.82155,80.92201
"10843",157.0792,80.58228,80.70842
"10844",157.09256,80.343025,80.48736
"10845",157.10587,80.111084,80.266136
"10846",157.11923,79.90112,80.05965
"10847",157.13254,79.71557,79.871
"10848",157.1459,79.551994,79.69854
"10849",157.15921,79.41039,79.54294
"10850",157.17258,79.28832,79.40244
"10851",157.18588,79.19066,79.28254
"10852",157.19925,79.114975,79.181564
"10853",157.21255,79.061264,79.1002
"10854",157.22592,79.029526,79.03912
"10855",157.23923,79.009995,78.989265
"10856",157.2526,79.00267,78.951004
"10857",157.2659,79.00023,78.9174
"10858",157.27927,79.00023,78.886154
"10859",157.29257,78.99046,78.845146
"10860",157.30594,78.975815,78.79895
"10861",157.31924,78.9514,78.74253
"10862",157.33261,78.922104,78.680466
"10863",157.34592,78.88304,78.60772
"10864",157.35928,78.84154,78.53131
"10865",157.37259,78.80492,78.45849
"10866",157.38596,78.77562,78.391846
"10867",157.39926,78.75609,78.33405
"10868",157.41263,78.74387,78.28297
"10869",157.42593,78.73655,78.23639
"10870",157.4393,78.729225,78.18958
"10871",157.4526,78.71946,78.14011
"10872",157.46597,78.70237,78.083
"10873",157.47928,78.67307,78.01315
"10874",157.49265,78.63889,77.93751
"10875",157.50595,78.60227,77.85835
"10876",157.51932,78.55833,77.77073
"10877",157.53262,78.52903,77.69638
"10878",157.54599,78.54124,77.66262
"10879",157.5593,78.658424,77.73422
"10880",157.57266,78.96849,78.002365
"10881",157.58597,79.517815,78.519455
"10882",157.59933,80.29664,79.28321
"10883",157.61264,81.22438,80.22022
"10884",157.626,82.16434,81.19844
"10885",157.63931,82.96025,82.06199
"10886",157.65268,83.492485,82.68673
"10887",157.66599,83.72198,83.02536
"10888",157.67935,83.685356,83.10505
"10889",157.69266,83.43633,82.97119
"10890",157.70602,83.055466,82.69771
"10891",157.71933,82.598915,82.33664
"10892",157.7327,82.12283,81.94177
"10893",157.746,81.654076,81.53935
"10894",157.75937,81.2195,81.15646
"10895",157.77267,80.831314,80.80639
"10896",157.78604,80.5066,80.50765
"10897",157.79935,80.257576,80.27446
"10898",157.81271,80.09888,80.12381
"10899",157.82602,80.042725,80.07075
"10900",157.83939,80.1062,80.13556
"10901",157.85269,80.274666,80.30734
"10902",157.86606,80.52857,80.56983
"10903",157.87936,80.816666,80.87444
"10904",157.89273,81.0901,81.1734
"10905",157.90604,81.30007,81.417435
"10906",157.9194,81.42214,81.58013
"10907",157.93271,81.45144,81.65387
"10908",157.94608,81.3904,81.63819
"10909",157.95938,81.25613,81.54736
"10910",157.97275,81.06569,81.39618
"10911",157.98605,80.848404,81.2122
"10912",157.99942,80.618904,81.00921
"10913",158.01273,80.396736,80.80638
"10914",158.0261,80.18921,80.61125
"10915",158.0394,80.00366,80.43162
"10916",158.05276,79.84497,80.27304
"10917",158.06607,79.71313,80.13635
"10918",158.07944,79.61303,80.02729
"10919",158.09274,79.54467,79.94684
"10920",158.10611,79.50805,79.89599
"10921",158.11942,79.49096,79.863525
"10922",158.13278,79.48852,79.84518
"10923",158.14609,79.49096,79.831635
"10924",158.15945,79.49828,79.82305
"10925",158.17276,79.500725,79.809814
"10926",158.18613,79.500725,79.79421
"10927",158.19943,79.49096,79.768845
"10928",158.2128,79.46899,79.730965
"10929",158.2261,79.43969,79.685074
"10930",158.23947,79.40795,79.635826
"10931",158.25278,79.381096,79.59047
"10932",158.26614,79.35668,79.546715
"10933",158.27945,79.33227,79.5022
"10934",158.29282,79.30785,79.45692
"10935",158.30612,79.27856,79.40599
"10936",158.31949,79.23949,79.344376
"10937",158.3328,79.19066,79.27178
"10938",158.34616,79.14183,79.19766
"10939",158.35947,79.093,79.12202
"10940",158.37283,79.04173,79.042404
"10941",158.38614,79.00267,78.9734
"10942",158.3995,78.99779,78.93735
"10943",158.41281,79.093,79.00124
"10944",158.42618,79.364006,79.243904
"10945",158.43948,79.869385,79.72941
"10946",158.45285,80.60914,80.46508
"10947",158.46616,81.50515,81.38013
"10948",158.47952,82.43046,82.35247
"10949",158.49283,83.23125,83.22921
"10950",158.5062,83.790344,83.88928
"10951",158.5195,84.06622,84.28361
"10952",158.53287,84.08087,84.42532
"10953",158.54617,83.888,84.35998
"10954",158.55954,83.55596,84.14944
"10955",158.57285,83.13359,83.83819
"10956",158.58621,82.6746,83.47712
"10957",158.59952,82.213165,83.099266
"10958",158.61288,81.77615,82.731415
"10959",158.62619,81.3904,82.40117
"10960",158.63956,81.06081,82.11502
"10961",158.65286,80.80202,81.88938
"10962",158.66623,80.63111,81.74354
"10963",158.67953,80.56031,81.69246
"10964",158.6929,80.59205,81.74171
"10965",158.7062,80.71656,81.88472
"10966",158.71957,80.90944,82.09999
"10967",158.73288,81.12428,82.343254
"10968",158.74625,81.31228,82.56638
"10969",158.75955,81.43191,82.72702
"10970",158.77292,81.463646,82.803505
"10971",158.78622,81.39529,82.78088
"10972",158.79959,81.24147,82.67067
"10973",158.8129,81.02174,82.48974
"10974",158.82626,80.76051,82.26044
"10975",158.83957,80.479744,82.00343
"10976",158.85294,80.198975,81.737656
"10977",158.86624,79.937744,81.48264
"10978",158.87961,79.70092,81.24387
"10979",158.89291,79.49584,81.02945
"10980",158.90628,79.32983,80.84768
"10981",158.91959,79.1931,80.69001
"10982",158.93295,79.08568,80.55737
"10983",158.94626,79.00267,80.44579
"10984",158.95963,78.94408,80.35603
"10985",158.97293,78.907455,80.286415
"10986",158.9863,78.887924,80.23274
"10987",158.9996,78.88304,80.19311
"10988",159.01297,78.88304,80.1582
"10989",159.02628,78.8806,80.12086
"10990",159.03964,78.86839,80.07367
"10991",159.05295,78.84398,80.01389
"10992",159.06631,78.8098,79.94359
"10993",159.07962,78.76097,79.85757
"10994",159.09299,78.70481,79.76269
"10995",159.1063,78.643776,79.66118
"10996",159.11966,78.58274,79.55776
"10997",159.13297,78.52415,79.45488
"10998",159.14633,78.47288,79.35749
"10999",159.15964,78.42893,79.26582
"11000",159.173,78.38499,79.17278
"11001",159.18631,78.3386,79.07593
"11002",159.19968,78.28733,78.97274
"11003",159.21298,78.24582,78.87771
"11004",159.22635,78.25315,78.83022
"11005",159.23965,78.382545,78.90503
"11006",159.25302,78.695045,79.166985
"11007",159.26633,79.22972,79.66088
"11008",159.2797,79.94995,80.35704
"11009",159.293,80.75807,81.1636
"11010",159.30637,81.52712,81.95634
"11011",159.31967,82.12039,82.59733
"11012",159.33304,82.4622,83.005394
"11013",159.34634,82.54276,83.1629
"11014",159.35971,82.39628,83.09588
"11015",159.37302,82.08621,82.860695
"11016",159.38638,81.68093,82.52061
"11017",159.39969,81.234146,82.12635
"11018",159.41306,80.797134,81.727905
"11019",159.42636,80.40162,81.3573
"11020",159.43973,80.062256,81.03049
"11021",159.45303,79.78882,80.758995
"11022",159.4664,79.586174,80.54975
"11023",159.4797,79.449455,80.4001
"11024",159.49307,79.395744,80.329185
"11025",159.50638,79.432365,80.346924
"11026",159.51974,79.551994,80.448814
"11027",159.53305,79.73266,80.61548
"11028",159.54642,79.937744,80.81221
"11029",159.55972,80.12329,80.99581
"11030",159.57309,80.25025,81.126625
"11031",159.5864,80.289314,81.17351
"11032",159.59976,80.24536,81.138596
"11033",159.61307,80.12085,81.02175
"11034",159.62643,79.940186,80.844864
"11035",159.63974,79.71801,80.62082
"11036",159.6531,79.47387,80.36787
"11037",159.66641,79.234604,80.11216
"11038",159.67978,79.012436,79.86607
"11039",159.69308,78.819565,79.64234
"11040",159.70645,78.67063,79.45652
"11041",159.71976,78.56321,79.307556
"11042",159.73312,78.49485,79.1943
"11043",159.74643,78.470436,79.12285
"11044",159.7598,78.485085,79.0897
"11045",159.7731,78.52659,79.08386
"11046",159.78647,78.58274,79.09397
"11047",159.79977,78.64866,79.1156
"11048",159.81314,78.71702,79.14173
"11049",159.82645,78.785385,79.170006
"11050",159.83981,78.84398,79.19064
"11051",159.85312,78.90013,79.21067
"11052",159.86649,78.94408,79.220245
"11053",159.87979,78.97093,79.2141
"11054",159.89316,78.97826,79.18927
"11055",159.90646,78.96849,79.147575
"11056",159.91983,78.94408,79.09093
"11057",159.93314,78.907455,79.02131
"11058",159.9465,78.86351,78.94322
"11059",159.95981,78.81468,78.85888
"11060",159.97318,78.77074,78.77789
"11061",159.98648,78.74876,78.7175
"11062",159.99985,78.78783,78.71747
"11063",160.01315,78.94652,78.83828
"11064",160.02652,79.273674,79.132515
"11065",160.03983,79.783936,79.62008
"11066",160.05319,80.43336,80.26275
"11067",160.0665,81.126724,80.96966
"11068",160.07986,81.74441,81.62255
"11069",160.09317,82.18875,82.12141
"11070",160.10654,82.406044,82.4071
"11071",160.11984,82.4036,82.47984
"11072",160.13321,82.22781,82.379166
"11073",160.14651,81.93729,82.15826
"11074",160.15988,81.583275,81.864784
"11075",160.17319,81.21706,81.54804
"11076",160.18655,80.87038,81.239395
"11077",160.19986,80.56519,80.96141
"11078",160.21323,80.31129,80.72517
"11079",160.22653,80.10864,80.53225
"11080",160.2399,79.9646,80.3916
"11081",160.2532,79.89136,80.31725
"11082",160.26657,79.89868,80.32118
"11083",160.27988,79.98901,80.40835
"11084",160.29324,80.147705,80.566696
"11085",160.30655,80.34791,80.771515
"11086",160.31992,80.5481,80.98258
"11087",160.33322,80.706795,81.1584
"11088",160.34659,80.797134,81.27083
"11089",160.3599,80.80446,81.30306
"11090",160.37326,80.73121,81.25495
"11091",160.38657,80.58961,81.1362
"11092",160.39993,80.40406,80.96908
"11093",160.41324,80.19165,80.769295
"11094",160.4266,79.971924,80.55556
"11095",160.43991,79.766846,80.3496
"11096",160.45328,79.57885,80.15432
"11097",160.46658,79.415276,79.977585
"11098",160.47995,79.27856,79.82259
"11099",160.49326,79.17113,79.69262
"11100",160.50662,79.08324,79.57883
"11101",160.51993,79.027084,79.494026
"11102",160.5333,79.00023,79.43677
"11103",160.5466,79.00511,79.41041
"11104",160.55997,79.03441,79.408615
"11105",160.57327,79.07347,79.4175
"11106",160.58664,79.11742,79.432495
"11107",160.59995,79.151596,79.439095
"11108",160.61331,79.168686,79.42967
"11109",160.62662,79.168686,79.403694
"11110",160.63998,79.14671,79.35574
"11111",160.65329,79.10277,79.28513
"11112",160.66666,79.044174,79.1985
"11113",160.67996,78.98314,79.1076
"11114",160.69333,78.93431,79.02699
"11115",160.70663,78.93431,78.99369
"11116",160.72,79.027084,79.05316
"11117",160.7333,79.26147,79.25714
"11118",160.74667,79.67162,79.64422
"11119",160.75998,80.24048,80.20281
"11120",160.77335,80.89235,80.8622
"11121",160.78665,81.5198,81.51753
"11122",160.80002,82.01785,82.06308
"11123",160.81332,82.29862,82.406906
"11124",160.82669,82.34257,82.52268
"11125",160.84,82.18631,82.43963
"11126",160.85336,81.8909,82.21254
"11127",160.86667,81.52224,81.90297
"11128",160.88004,81.14137,81.56967
"11129",160.89334,80.78493,81.24889
"11130",160.90671,80.482185,80.97068
"11131",160.92001,80.24536,80.748924
"11132",160.93338,80.06714,80.57837
"11133",160.94669,79.93286,80.44619
"11134",160.96005,79.84741,80.35864
"11135",160.97336,79.81323,80.319695
"11136",160.98672,79.82788,80.32851
"11137",161.00003,79.8938,80.389046
"11138",161.0134,80.0061,80.49803
"11139",161.0267,80.13306,80.625175
"11140",161.04007,80.24048,80.736755
"11141",161.05338,80.306404,80.810196
"11142",161.06674,80.31617,80.82954
"11143",161.08005,80.274666,80.79791
"11144",161.09341,80.184326,80.716156
"11145",161.10672,80.062256,80.599846
"11146",161.12009,79.91333,80.452866
"11147",161.13339,79.74975,80.286575
"11148",161.14676,79.57397,80.102974
"11149",161.16006,79.40063,79.91632
"11150",161.17343,79.23949,79.73645
"11151",161.18674,79.097885,79.57108
"11152",161.2001,78.98802,79.43303
"11153",161.21341,78.91234,79.32572
"11154",161.22678,78.87572,79.25511
"11155",161.24008,78.86351,79.20777
"11156",161.25345,78.873276,79.18202
"11157",161.26675,78.887924,79.16146
"11158",161.28012,78.90013,79.138916
"11159",161.29343,78.90257,79.10699
"11160",161.3068,78.89769,79.06781
"11161",161.3201,78.89281,79.02848
"11162",161.33347,78.89281,78.99388
"11163",161.34677,78.907455,78.97393
"11164",161.36014,78.93675,78.969086
"11165",161.37344,78.97337,78.97248
"11166",161.38681,79.009995,78.97702
"11167",161.40012,79.03197,78.968056
"11168",161.41348,79.03929,78.94513
"11169",161.42679,79.02464,78.90046
"11170",161.44016,78.995346,78.84068
"11171",161.45346,78.96117,78.77511
"11172",161.46683,78.924545,78.706024
"11173",161.48013,78.887924,78.635796
"11174",161.4935,78.87816,78.59128
"11175",161.5068,78.94408,78.62214
"11176",161.52017,79.16136,78.80643
"11177",161.53348,79.586174,79.20503
"11178",161.54684,80.21118,79.81711
"11179",161.56015,80.972916,80.58544
"11180",161.57352,81.74197,81.384895
"11181",161.58682,82.38163,82.078995
"11182",161.60019,82.77959,82.55138
"11183",161.6135,82.896774,82.755424
"11184",161.62686,82.774704,82.72388
"11185",161.64017,82.47929,82.51517
"11186",161.65353,82.09354,82.206894
"11187",161.66684,81.688255,81.867035
"11188",161.6802,81.31716,81.5487
"11189",161.69351,81.01686,81.28956
"11190",161.70688,80.80202,81.10649
"11191",161.72018,80.66773,80.99727
"11192",161.73355,80.59205,80.94245
"11193",161.74686,80.5481,80.91701
"11194",161.76022,80.52369,80.90972
"11195",161.77353,80.51148,80.91388
"11196",161.7869,80.51392,80.932304
"11197",161.8002,80.52369,80.95813
"11198",161.81357,80.54566,80.99647
"11199",161.82687,80.567635,81.03549
"11200",161.84024,80.57252,81.05811
"11201",161.85355,80.54566,81.04915
"11202",161.86691,80.479744,81.00028
"11203",161.88022,80.37965,80.91518
"11204",161.89359,80.24536,80.792755
"11205",161.90689,80.08423,80.63929
"11206",161.92026,79.906006,80.4637
"11207",161.93356,79.725334,80.28009
"11208",161.94693,79.551994,80.09817
"11209",161.96024,79.40063,79.9328
"11210",161.9736,79.273674,79.78712
"11211",161.98691,79.17601,79.666756
"11212",162.00027,79.11253,79.57753
"11213",162.01358,79.07103,79.50829
"11214",162.02695,79.046616,79.45485
"11215",162.04025,79.03441,79.41285
"11216",162.05362,79.029526,79.37779
"11217",162.06693,79.027084,79.345024
"11218",162.08029,79.01732,79.304855
"11219",162.0936,79.00511,79.26194
"11220",162.10696,78.98558,79.21132
"11221",162.12027,78.95384,79.14788
"11222",162.13364,78.91478,79.076126
"11223",162.14694,78.87572,79.00315
"11224",162.16031,78.836655,78.928955
"11225",162.17361,78.802475,78.85842
"11226",162.18698,78.77318,78.7917
"11227",162.20029,78.751205,78.73139
"11228",162.21365,78.73167,78.67283
"11229",162.22696,78.70725,78.60878
"11230",162.24033,78.68284,78.54397
"11231",162.25363,78.658424,78.47839
"11232",162.267,78.63401,78.412056
"11233",162.2803,78.61448,78.34984
"11234",162.29367,78.60471,78.296776
"11235",162.30698,78.60227,78.25073
"11236",162.32034,78.60471,78.209496
"11237",162.33365,78.61204,78.17322
"11238",162.34702,78.61936,78.13717
"11239",162.36032,78.626686,78.10135
"11240",162.37369,78.63157,78.06332
"11241",162.387,78.626686,78.01567
"11242",162.40036,78.61448,77.96055
"11243",162.41367,78.59983,77.9026
"11244",162.42703,78.59495,77.853966
"11245",162.44034,78.63889,77.854004
"11246",162.4537,78.80492,77.97749
"11247",162.46701,79.166245,78.301476
"11248",162.48038,79.74731,78.85648
"11249",162.49368,80.50172,79.603
"11250",162.50705,81.32937,80.44633
"11251",162.52036,82.08133,81.23983
"11252",162.53372,82.62089,81.84443
"11253",162.54703,82.879684,82.18513
"11254",162.5604,82.862595,82.258026
"11255",162.5737,82.633095,82.11798
"11256",162.58707,82.27177,81.838936
"11257",162.60037,81.8616,81.49976
"11258",162.61374,81.47341,81.16975
"11259",162.62704,81.160904,80.90328
"11260",162.64041,80.94362,80.722275
"11261",162.65372,80.82399,80.63213
"11262",162.66708,80.7776,80.611496
"11263",162.68039,80.76784,80.62603
"11264",162.69376,80.765396,80.64758
"11265",162.70706,80.75563,80.661736
"11266",162.72043,80.7483,80.67802
"11267",162.73373,80.743416,80.69652
"11268",162.7471,80.75319,80.72952
"11269",162.7604,80.765396,80.76527
"11270",162.77377,80.77272,80.79651
"11271",162.78708,80.75563,80.803566
"11272",162.80045,80.709236,80.780785
"11273",162.81375,80.63111,80.72482
"11274",162.82712,80.53101,80.64445
"11275",162.84042,80.411385,80.54141
"11276",162.85379,80.274666,80.41755
"11277",162.8671,80.13306,80.28452
"11278",162.88046,79.98901,80.14464
"11279",162.89377,79.84741,80.00269
"11280",162.90714,79.71313,79.86364
"11281",162.92044,79.59594,79.73749
"11282",162.9338,79.50317,79.63209
"11283",162.94711,79.43481,79.5482
"11284",162.96048,79.38354,79.47927
"11285",162.97379,79.3518,79.42827
"11286",162.98715,79.33471,79.39092
"11287",163.00046,79.31762,79.35304
"11288",163.01382,79.29565,79.309746
"11289",163.02713,79.26391,79.256
"11290",163.0405,79.22728,79.196365
"11291",163.0538,79.17845,79.12339
"11292",163.06717,79.12474,79.04401
"11293",163.08047,79.07591,78.96783
"11294",163.09384,79.03441,78.897446
"11295",163.10715,78.995346,78.82821
"11296",163.12051,78.96605,78.76752
"11297",163.13382,78.941635,78.71079
"11298",163.14719,78.91966,78.65575
"11299",163.16049,78.89281,78.59513
"11300",163.17386,78.86351,78.531235
"11301",163.18716,78.836655,78.468864
"11302",163.20053,78.802475,78.39833
"11303",163.21384,78.77074,78.32917
"11304",163.2272,78.74387,78.26389
"11305",163.24051,78.71946,78.200226
"11306",163.25388,78.695045,78.135796
"11307",163.26718,78.6804,78.08037
"11308",163.28055,78.67063,78.029366
"11309",163.29385,78.66575,77.98294
"11310",163.30722,78.66575,77.941246
"11311",163.32053,78.67063,77.904434
"11312",163.3339,78.67307,77.86533
"11313",163.3472,78.67307,77.82387
"11314",163.36057,78.66575,77.77508
"11315",163.37387,78.65354,77.721176
"11316",163.38724,78.63645,77.66201
"11317",163.40054,78.626686,77.609634
"11318",163.41391,78.61936,77.559395
"11319",163.42722,78.63889,77.53578
"11320",163.44058,78.7219,77.576256
"11321",163.45389,78.94408,77.75849
"11322",163.46725,79.3518,78.13322
"11323",163.48056,79.95972,78.72088
"11324",163.49393,80.70435,79.46426
"11325",163.50723,81.46853,80.25044
"11326",163.5206,82.11063,80.93843
"11327",163.5339,82.52079,81.41455
"11328",163.54727,82.65751,81.63004
"11329",163.56058,82.55253,81.60811
"11330",163.57394,82.27665,81.411995
"11331",163.58725,81.91043,81.11692
"11332",163.60062,81.52468,80.79087
"11333",163.61392,81.16823,80.48206
"11334",163.62729,80.88258,80.232925
"11335",163.6406,80.67994,80.05786
"11336",163.65396,80.550545,79.949715
"11337",163.66727,80.4773,79.89368
"11338",163.68063,80.4358,79.86709
"11339",163.69394,80.411385,79.85629
"11340",163.7073,80.4065,79.864265
"11341",163.72061,80.42359,79.89406
"11342",163.73398,80.465096,79.9488
"11343",163.74728,80.533455,80.03169
"11344",163.76065,80.60914,80.12405
"11345",163.77396,80.66285,80.19679
"11346",163.78732,80.67994,80.2346
"11347",163.80063,80.655525,80.23143
"11348",163.814,80.58228,80.17867
"11349",163.8273,80.46998,80.084564
"11350",163.84067,80.32838,79.95765
"11351",163.85397,80.16968,79.80921
"11352",163.86734,80.00366,79.6485
"11353",163.88065,79.84497,79.48992
"11354",163.89401,79.7058,79.34591
"11355",163.90732,79.586174,79.21709
"11356",163.92068,79.48852,79.1065
"11357",163.93399,79.41772,79.019714
"11358",163.94736,79.36645,78.95025
"11359",163.96066,79.32983,78.89383
"11360",163.97403,79.310295,78.853355
"11361",163.98734,79.30297,78.82448
"11362",164.0007,79.30053,78.800255
"11363",164.014,79.29809,78.775955
"11364",164.02737,79.29565,78.75158
"11365",164.04068,79.28832,78.722244
"11366",164.05405,79.276115,78.6878
"11367",164.06735,79.259026,78.64809
"11368",164.08072,79.24681,78.61272
"11369",164.09402,79.234604,78.57697
"11370",164.10739,79.22728,78.54573
"11371",164.1207,79.2224,78.5167
"11372",164.13406,79.217514,78.48752
"11373",164.14737,79.20775,78.4533
"11374",164.16074,79.19066,78.41145
"11375",164.17404,79.168686,78.36419
"11376",164.18741,79.14427,78.3138
"11377",164.20071,79.11742,78.2602
"11378",164.21408,79.093,78.208206
"11379",164.22739,79.07591,78.16277
"11380",164.24075,79.061264,78.11925
"11381",164.25406,79.044174,78.07282
"11382",164.26743,79.02464,78.02342
"11383",164.28073,79.00023,77.96853
"11384",164.2941,78.97337,77.91043
"11385",164.3074,78.94408,77.84905
"11386",164.32077,78.91966,77.79164
"11387",164.33408,78.90257,77.74079
"11388",164.34744,78.91478,77.718704
"11389",164.36075,79.012436,77.78245
"11390",164.37411,79.259026,77.99818
"11391",164.38742,79.693596,78.40959
"11392",164.40079,80.289314,78.995735
"11393",164.4141,80.97536,79.69082
"11394",164.42746,81.6321,80.378044
"11395",164.44077,82.13504,80.931984
"11396",164.45413,82.4036,81.267265
"11397",164.46744,82.4329,81.37167
"11398",164.4808,82.25712,81.27192
"11399",164.49411,81.95438,81.03971
"11400",164.50748,81.58572,80.732124
"11401",164.52078,81.21706,80.41302
"11402",164.53415,80.88991,80.1239
"11403",164.54745,80.621346,79.88315
"11404",164.56082,80.42359,79.70481
"11405",164.57413,80.28687,79.58133
"11406",164.5875,80.19409,79.49751
"11407",164.6008,80.13794,79.447426
"11408",164.61417,80.111084,79.42488
"11409",164.62747,80.11841,79.43568
"11410",164.64084,80.16968,79.49065
"11411",164.65414,80.26002,79.58629
"11412",164.66751,80.36988,79.70428
"11413",164.68082,80.48463,79.83058
"11414",164.69418,80.570076,79.931175
"11415",164.70749,80.604256,79.98317
"11416",164.72086,80.5774,79.9752
"11417",164.73416,80.49683,79.912674
"11418",164.74753,80.37232,79.80369
"11419",164.76083,80.218506,79.66151
"11420",164.7742,80.05005,79.49988
"11421",164.7875,79.89136,79.34275
"11422",164.80087,79.744865,79.19286
"11423",164.81418,79.62035,79.06038
"11424",164.82755,79.517815,78.94598
"11425",164.84085,79.43725,78.85034
"11426",164.85422,79.37377,78.76928
"11427",164.86752,79.33227,78.708206
"11428",164.88089,79.310295,78.66537
"11429",164.8942,79.30297,78.63649
"11430",164.90756,79.30541,78.61715
"11431",164.92087,79.310295,78.60033
"11432",164.93423,79.310295,78.57877
"11433",164.94754,79.30297,78.5499
"11434",164.9609,79.293205,78.51835
"11435",164.97421,79.281,78.484055
"11436",164.98758,79.26879,78.44938
"11437",165.00089,79.259026,78.41676
"11438",165.01425,79.24925,78.383835
"11439",165.02756,79.237045,78.34817
"11440",165.04092,79.219955,78.307236
"11441",165.05423,79.200424,78.26333
"11442",165.0676,79.18089,78.21881
"11443",165.0809,79.16136,78.17368
"11444",165.09427,79.14427,78.13039
"11445",165.10757,79.12962,78.089
"11446",165.12094,79.11742,78.04959
"11447",165.13425,79.10765,78.012245
"11448",165.14761,79.10277,77.97948
"11449",165.16092,79.10033,77.949
"11450",165.17429,79.10033,77.92088
"11451",165.18759,79.097885,77.89033
"11452",165.20096,79.093,77.857254
"11453",165.21426,79.08324,77.819145
"11454",165.22763,79.078354,77.785614
"11455",165.24094,79.11253,77.79099
"11456",165.2543,79.24925,77.89998
"11457",165.26761,79.55932,78.186584
"11458",165.28098,80.06714,78.68063
"11459",165.29428,80.740974,79.35657
"11460",165.30765,81.480736,80.119484
"11461",165.32095,82.15701,80.84203
"11462",165.33432,82.64774,81.40017
"11463",165.34763,82.88457,81.719734
"11464",165.361,82.86992,81.79523
"11465",165.3743,82.66239,81.67738
"11466",165.38766,82.33524,81.43343
"11467",165.40097,81.95682,81.12798
"11468",165.41434,81.57839,80.81071
"11469",165.42764,81.24391,80.52555
"11470",165.44101,80.98024,80.30075
"11471",165.45432,80.78981,80.14095
"11472",165.46768,80.66041,80.03623
"11473",165.48099,80.5774,79.97386
"11474",165.49435,80.52125,79.93575
"11475",165.50766,80.49439,79.925186
"11476",165.52103,80.48951,79.93575
"11477",165.53433,80.51881,79.98035
"11478",165.5477,80.57984,80.057594
"11479",165.561,80.65797,80.15384
"11480",165.57437,80.72877,80.2452
"11481",165.58768,80.76784,80.307045
"11482",165.60104,80.76784,80.33104
"11483",165.61435,80.71656,80.30376
"11484",165.62772,80.621346,80.230934
"11485",165.64102,80.49195,80.12096
"11486",165.65439,80.34058,79.98496
"11487",165.6677,80.17944,79.834465
"11488",165.68106,80.01831,79.67894
"11489",165.69437,79.86206,79.52326
"11490",165.70773,79.72289,79.37978
"11491",165.72104,79.603264,79.251495
"11492",165.7344,79.50805,79.14388
"11493",165.74771,79.43481,79.05527
"11494",165.76108,79.38354,78.986336
"11495",165.77438,79.34936,78.93289
"11496",165.78775,79.32983,78.89303
"11497",165.80106,79.31518,78.85744
"11498",165.81442,79.30785,78.82871
"11499",165.82773,79.30541,78.80464
"11500",165.8411,79.30541,78.782936
"11501",165.8544,79.30297,78.75879
"11502",165.86777,79.293205,78.72724
"11503",165.88107,79.281,78.69295
"11504",165.89444,79.26635,78.65583
"11505",165.90775,79.24193,78.60848
"11506",165.92111,79.21507,78.55794
"11507",165.93442,79.183334,78.50167
"11508",165.94778,79.14671,78.43953
"11509",165.96109,79.11009,78.37624
"11510",165.97446,79.078354,78.316696
"11511",165.98776,79.046616,78.25616
"11512",166.00113,79.0222,78.20195
"11513",166.01443,78.995346,78.14454
"11514",166.0278,78.96849,78.08629
"11515",166.0411,78.94408,78.02964
"11516",166.05447,78.92699,77.97955
"11517",166.06778,78.91478,77.933815
"11518",166.08115,78.91478,77.8999
"11519",166.09445,78.91966,77.87087
"11520",166.10782,78.92699,77.84444
"11521",166.12112,78.92943,77.81335
"11522",166.13449,78.924545,77.77501
"11523",166.1478,78.91478,77.731636
"11524",166.16116,78.91478,77.69772
"11525",166.17447,78.96849,77.71752
"11526",166.18784,79.15404,77.870834
"11527",166.20114,79.534904,78.225266
"11528",166.21451,80.12329,78.79912
"11529",166.22781,80.867935,79.547615
"11530",166.24118,81.65896,80.36576
"11531",166.25449,82.35233,81.11098
"11532",166.26785,82.83086,81.66301
"11533",166.28116,83.04326,81.963875
"11534",166.29453,83.004196,82.01991
"11535",166.30783,82.777145,81.88674
"11536",166.3212,82.442665,81.639046
"11537",166.3345,82.06424,81.33695
"11538",166.34787,81.705345,81.042564
"11539",166.36118,81.40017,80.79068
"11540",166.37454,81.17311,80.607376
"11541",166.38785,81.02663,80.49755
"11542",166.40121,80.9485,80.45151
"11543",166.41452,80.90944,80.442085
"11544",166.42789,80.88747,80.44853
"11545",166.4412,80.87038,80.459175
"11546",166.45456,80.85817,80.47417
"11547",166.46786,80.85329,80.4961
"11548",166.48123,80.867935,80.537415
"11549",166.49454,80.89967,80.596275
"11550",166.5079,80.93385,80.65857
"11551",166.52121,80.95094,80.70484
"11552",166.53458,80.938736,80.72235
"11553",166.54788,80.88747,80.70042
"11554",166.56125,80.799576,80.64026
"11555",166.57455,80.6775,80.54317
"11556",166.58792,80.53834,80.42518
"11557",166.60123,80.38209,80.28575
"11558",166.6146,80.22339,80.13899
"11559",166.6279,80.07446,79.99705
"11560",166.64127,79.937744,79.862656
"11561",166.65457,79.818115,79.74108
"11562",166.66794,79.71801,79.63529
"11563",166.68124,79.639885,79.548355
"11564",166.69461,79.57397,79.47118
"11565",166.70792,79.520256,79.40416
"11566",166.72128,79.47631,79.34522
"11567",166.73459,79.44213,79.29468
"11568",166.74796,79.415276,79.25039
"11569",166.76126,79.395744,79.212585
"11570",166.77463,79.378654,79.17661
"11571",166.78793,79.361565,79.14011
"11572",166.8013,79.34203,79.100624
"11573",166.8146,79.3225,79.06053
"11574",166.82797,79.293205,79.01006
"11575",166.84128,79.26147,78.95624
"11576",166.85464,79.22728,78.89897
"11577",166.86795,79.19066,78.8382
"11578",166.88132,79.149155,78.77141
"11579",166.89462,79.10765,78.703316
"11580",166.90799,79.06615,78.63393
"11581",166.9213,79.03197,78.570564
"11582",166.93466,79.00267,78.51102
"11583",166.94797,78.975815,78.452995
"11584",166.96133,78.95384,78.39902
"11585",166.97464,78.93675,78.349236
"11586",166.988,78.91966,78.29892
"11587",167.00131,78.90013,78.24563
"11588",167.01468,78.88304,78.19417
"11589",167.02798,78.86351,78.13973
"11590",167.04135,78.84154,78.082245
"11591",167.05466,78.82201,78.02651
"11592",167.06802,78.80003,77.96773
"11593",167.08133,78.78294,77.91314
"11594",167.0947,78.765854,77.85802
"11595",167.108,78.765854,77.81945
"11596",167.12137,78.82689,77.84192
"11597",167.13467,79.0222,78.00057
"11598",167.14804,79.412834,78.36065
"11599",167.16135,80.01343,78.942894
"11600",167.17471,80.77272,79.70261
"11601",167.18802,81.583275,80.53731
"11602",167.20139,82.303505,81.307014
"11603",167.21469,82.80888,81.88438
"11604",167.22806,83.05058,82.21385
"11605",167.24136,83.04082,82.299416
"11606",167.25473,82.8333,82.18692
"11607",167.26804,82.50858,81.950745
"11608",167.2814,82.13504,81.655594
"11609",167.29471,81.76639,81.35366
"11610",167.30807,81.444115,81.086586
"11611",167.32138,81.18776,80.87536
"11612",167.33475,81.007095,80.73181
"11613",167.34805,80.89479,80.65098
"11614",167.36142,80.8362,80.620346
"11615",167.37473,80.814224,80.624504
"11616",167.38809,80.816666,80.65239
"11617",167.4014,80.831314,80.69256
"11618",167.41476,80.86305,80.750275
"11619",167.42807,80.89967,80.813866
"11620",167.44144,80.94362,80.885925
"11621",167.45474,80.98024,80.952034
"11622",167.46811,80.99733,80.999756
"11623",167.48141,80.98268,81.01627
"11624",167.49478,80.92897,80.99327
"11625",167.50809,80.8362,80.92953
"11626",167.52145,80.706795,80.826256
"11627",167.53476,80.552986,80.694534
"11628",167.54813,80.38453,80.54336
"11629",167.56143,80.21118,80.38203
"11630",167.5748,80.042725,80.22017
"11631",167.5881,79.88403,80.06281
"11632",167.60147,79.744865,79.92002
"11633",167.61478,79.62524,79.79242
"11634",167.62814,79.52514,79.68061
"11635",167.64145,79.44457,79.585205
"11636",167.65482,79.38842,79.511696
"11637",167.66812,79.34936,79.45352
"11638",167.68149,79.31762,79.40145
"11639",167.6948,79.293205,79.35571
"11640",167.70816,79.273674,79.314095
"11641",167.72147,79.24681,79.264534
"11642",167.73483,79.21263,79.20682
"11643",167.74814,79.17357,79.14315
"11644",167.7615,79.13451,79.07826
"11645",167.77481,79.10277,79.01948
"11646",167.78818,79.080795,78.96947
"11647",167.80148,79.061264,78.92121
"11648",167.81485,79.03929,78.8699
"11649",167.82816,79.009995,78.810585
"11650",167.84152,78.97826,78.74791
"11651",167.85483,78.93919,78.67692
"11652",167.8682,78.89769,78.602264
"11653",167.8815,78.85863,78.528755
"11654",167.89487,78.82689,78.46135
"11655",167.90817,78.79759,78.39539
"11656",167.92154,78.77318,78.333405
"11657",167.93484,78.75365,78.275536
"11658",167.94821,78.73655,78.21949
"11659",167.96152,78.71946,78.16292
"11660",167.97488,78.70481,78.10825
"11661",167.98819,78.68528,78.04825
"11662",168.00156,78.66819,77.990074
"11663",168.01486,78.64866,77.928925
"11664",168.02823,78.63157,77.869606
"11665",168.04153,78.63157,77.82684
"11666",168.0549,78.6804,77.83291
"11667",168.0682,78.84642,77.957695
"11668",168.08157,79.19798,78.27321
"11669",168.09488,79.75464,78.8048
"11670",168.10825,80.47242,79.514915
"11671",168.12155,81.253685,80.31094
"11672",168.13492,81.96658,81.06302
"11673",168.14822,82.48661,81.6445
"11674",168.16159,82.7454,81.980995
"11675",168.1749,82.75517,82.07656
"11676",168.18826,82.5745,81.98199
"11677",168.20157,82.269325,81.75726
"11678",168.21494,81.90555,81.4644
"11679",168.22824,81.532005,81.150406
"11680",168.24161,81.18776,80.854034
"11681",168.25491,80.89479,80.59818
"11682",168.26828,80.66285,80.3942
"11683",168.28159,80.49683,80.2489
"11684",168.29495,80.38453,80.15212
"11685",168.30826,80.323494,80.1031
"11686",168.32162,80.30152,80.09124
"11687",168.33493,80.31373,80.11287
"11688",168.3483,80.36256,80.1715
"11689",168.3616,80.448006,80.26828
"11690",168.37497,80.550545,80.38482
"11691",168.38828,80.65064,80.50212
"11692",168.40164,80.72877,80.60058
"11693",168.41495,80.76051,80.6551
"11694",168.42831,80.73853,80.65688
"11695",168.44162,80.65797,80.599396
"11696",168.45499,80.53834,80.50033
"11697",168.46829,80.38697,80.36578
"11698",168.48166,80.216064,80.20697
"11699",168.49496,80.03784,80.0355
"11700",168.50833,79.86694,79.86578
"11701",168.52164,79.7058,79.700485
"11702",168.535,79.56176,79.54725
"11703",168.54831,79.44213,79.413925
"11704",168.56168,79.344475,79.298836
"11705",168.57498,79.27123,79.20511
"11706",168.58835,79.219955,79.13106
"11707",168.60165,79.185776,79.0725
"11708",168.61502,79.168686,79.02997
"11709",168.62833,79.17113,79.00643
"11710",168.6417,79.17845,78.987854
"11711",168.655,79.19066,78.97439
"11712",168.66837,79.200424,78.95886
"11713",168.68167,79.200424,78.933876
"11714",168.69504,79.1931,78.901566
"11715",168.70834,79.17601,78.85926
"11716",168.72171,79.15404,78.81154
"11717",168.73502,79.12962,78.76069
"11718",168.74838,79.10521,78.709076
"11719",168.76169,79.080795,78.6567
"11720",168.77505,79.05638,78.60356
"11721",168.78836,79.03197,78.54966
"11722",168.80173,79.009995,78.49744
"11723",168.81503,78.992905,78.44941
"11724",168.8284,78.9807,78.40573
"11725",168.8417,78.96605,78.35923
"11726",168.85507,78.94408,78.30495
"11727",168.86838,78.91722,78.245094
"11728",168.88174,78.88548,78.17952
"11729",168.89505,78.853745,78.11295
"11730",168.90842,78.819565,78.04295
"11731",168.92172,78.79271,77.97921
"11732",168.93509,78.785385,77.93416
"11733",168.9484,78.82689,77.937706
"11734",168.96176,78.98314,78.0573
"11735",168.97507,79.3225,78.36488
"11736",168.98843,79.86694,78.88815
"11737",169.00174,80.56519,79.582245
"11738",169.0151,81.31716,80.351875
"11739",169.02841,81.99588,81.071754
"11740",169.04178,82.476845,81.61509
"11741",169.05508,82.70634,81.92198
"11742",169.06845,82.701454,82.00167
"11743",169.08176,82.513466,81.8981
"11744",169.09512,82.21805,81.68123
"11745",169.10843,81.86893,81.40142
"11746",169.1218,81.50759,81.09849
"11747",169.1351,81.16579,80.803795
"11748",169.14847,80.87038,80.544815
"11749",169.16177,80.62623,80.327866
"11750",169.17514,80.43336,80.154564
"11751",169.18845,80.291756,80.026505
"11752",169.20181,80.198975,79.94284
"11753",169.21512,80.15991,79.909996
"11754",169.22849,80.184326,79.93941
"11755",169.24179,80.27955,80.04039
"11756",169.25516,80.430916,80.20049
"11757",169.26846,80.61402,80.397064
"11758",169.28183,80.78981,80.59204
"11759",169.29514,80.921646,80.74856
"11760",169.3085,80.98024,80.83595
"11761",169.32181,80.96071,80.84705
"11762",169.33517,80.867935,80.7843
"11763",169.34848,80.719,80.66249
"11764",169.36185,80.533455,80.49941
"11765",169.37515,80.33326,80.31589
"11766",169.38852,80.1355,80.12854
"11767",169.40182,79.94507,79.942345
"11768",169.41519,79.77661,79.77217
"11769",169.4285,79.63012,79.6187
"11770",169.44186,79.50317,79.48019
"11771",169.45517,79.40063,79.36212
"11772",169.46854,79.3225,79.26527
"11773",169.48184,79.26879,79.190384
"11774",169.49521,79.237045,79.13579
"11775",169.50851,79.22484,79.09974
"11776",169.52188,79.22972,79.0804
"11777",169.53519,79.24437,79.07098
"11778",169.54855,79.26391,79.0669
"11779",169.56186,79.27856,79.05855
"11780",169.57523,79.28344,79.040886
"11781",169.58853,79.273674,79.00873
"11782",169.6019,79.256584,78.96894
"11783",169.6152,79.22972,78.918846
"11784",169.62857,79.200424,78.86548
"11785",169.64188,79.17113,78.811195
"11786",169.65524,79.149155,78.76332
"11787",169.66855,79.12962,78.7172
"11788",169.68192,79.11009,78.67047
"11789",169.69522,79.08812,78.62069
"11790",169.70859,79.063705,78.56778
"11791",169.7219,79.03441,78.509224
"11792",169.73526,78.99779,78.44243
"11793",169.74857,78.96117,78.37449
"11794",169.76193,78.924545,78.305405
"11795",169.77524,78.90257,78.249825
"11796",169.7886,78.924545,78.2375
"11797",169.80191,79.05638,78.33573
"11798",169.81528,79.364006,78.61387
"11799",169.82858,79.88159,79.11158
"11800",169.84195,80.58228,79.80857
"11801",169.85526,81.375755,80.62024
"11802",169.86862,82.13504,81.422516
"11803",169.88193,82.72587,82.08006
"11804",169.8953,83.070114,82.50949
"11805",169.9086,83.160446,82.69576
"11806",169.92197,83.04082,82.6749
"11807",169.93527,82.77226,82.501366
"11808",169.94864,82.41581,82.231544
"11809",169.96194,82.0325,81.92373
"11810",169.97531,81.6614,81.61614
"11811",169.98862,81.32937,81.33603
"11812",170.00198,81.05592,81.104126
"11813",170.01529,80.84108,80.92228
"11814",170.02866,80.68482,80.792305
"11815",170.04196,80.57496,80.70384
"11816",170.05533,80.516365,80.663216
"11817",170.06863,80.51148,80.67447
"11818",170.082,80.567635,80.746605
"11819",170.0953,80.6775,80.87421
"11820",170.10867,80.81911,81.03699
"11821",170.12198,80.96803,81.21151
"11822",170.13535,81.08522,81.35895
"11823",170.14865,81.1487,81.45634
"11824",170.16202,81.146255,81.48979
"11825",170.17532,81.08034,81.459694
"11826",170.18869,80.95827,81.37138
"11827",170.202,80.78493,81.22799
"11828",170.21536,80.58228,81.04987
"11829",170.22867,80.37232,80.85811
"11830",170.24203,80.164795,80.66222
"11831",170.25534,79.96948,80.47205
"11832",170.2687,79.7937,80.29532
"11833",170.28201,79.64721,80.14238
"11834",170.29538,79.52514,80.009285
"11835",170.30869,79.432365,79.90167
"11836",170.32205,79.36889,79.82046
"11837",170.33536,79.32494,79.75679
"11838",170.34872,79.293205,79.70396
"11839",170.36203,79.273674,79.66234
"11840",170.3754,79.26147,79.62743
"11841",170.3887,79.25414,79.59703
"11842",170.40207,79.256584,79.576164
"11843",170.41537,79.259026,79.555374
"11844",170.42874,79.259026,79.53222
"11845",170.44205,79.24925,79.49929
"11846",170.45541,79.22972,79.4563
"11847",170.46872,79.19554,79.39805
"11848",170.48209,79.151596,79.328964
"11849",170.49539,79.10765,79.25851
"11850",170.50876,79.06615,79.18912
"11851",170.52206,79.029526,79.123314
"11852",170.53543,78.99779,79.06125
"11853",170.54874,78.96361,78.99575
"11854",170.5621,78.92943,78.929184
"11855",170.57541,78.887924,78.854225
"11856",170.58878,78.8513,78.78285
"11857",170.60208,78.81468,78.710335
"11858",170.61545,78.79027,78.64888
"11859",170.62875,78.79027,78.61108
"11860",170.64212,78.873276,78.65628
"11861",170.65543,79.11253,78.86033
"11862",170.6688,79.57397,79.29403
"11863",170.6821,80.26002,79.96677
"11864",170.69547,81.09987,80.81474
"11865",170.70877,81.97391,81.72315
"11866",170.72214,82.73075,82.54168
"11867",170.73544,83.250786,83.14705
"11868",170.74881,83.49493,83.492775
"11869",170.76212,83.49737,83.60443
"11870",170.77548,83.31426,83.53062
"11871",170.78879,83.018845,83.33877
"11872",170.80215,82.66483,83.079094
"11873",170.81546,82.303505,82.80104
"11874",170.82883,81.96658,82.5361
"11875",170.84213,81.68093,82.311905
"11876",170.8555,81.45876,82.142265
"11877",170.8688,81.29519,82.02428
"11878",170.88217,81.17799,81.947556
"11879",170.89548,81.10475,81.911125
"11880",170.90884,81.075455,81.91635
"11881",170.92215,81.08766,81.962166
"11882",170.93552,81.14137,82.049866
"11883",170.94882,81.22926,82.17342
"11884",170.96219,81.32693,82.3095
"11885",170.9755,81.41482,82.43886
"11886",170.98886,81.463646,82.5319
"11887",171.00217,81.45876,82.572754
"11888",171.01553,81.40261,82.56219
"11889",171.02884,81.29275,82.496155
"11890",171.0422,81.13161,82.37541
"11891",171.05551,80.938736,82.2179
"11892",171.06888,80.723885,82.03239
"11893",171.08218,80.50416,81.83528
"11894",171.09555,80.2942,81.641075
"11895",171.10886,80.096436,81.45251
"11896",171.12222,79.923096,81.28218
"11897",171.13553,79.77661,81.13329
"11898",171.1489,79.65209,81.00179
"11899",171.1622,79.54955,80.88838
"11900",171.17557,79.46899,80.79374
"11901",171.18887,79.40795,80.71611
"11902",171.20224,79.361565,80.65122
"11903",171.21555,79.32983,80.59953
"11904",171.22891,79.30541,80.55418
"11905",171.24222,79.28344,80.5105
"11906",171.25558,79.25414,80.45881
"11907",171.26889,79.217514,80.39887
"11908",171.28226,79.168686,80.32559
"11909",171.29556,79.11253,80.24346
"11910",171.30893,79.05638,80.15958
"11911",171.32224,79.00023,80.07394
"11912",171.3356,78.94896,79.991425
"11913",171.3489,78.90013,79.90975
"11914",171.36227,78.856186,79.831436
"11915",171.37558,78.81468,79.75419
"11916",171.38895,78.77074,79.6732
"11917",171.40225,78.72434,79.588394
"11918",171.41562,78.677956,79.502144
"11919",171.42892,78.626686,79.40956
"11920",171.44229,78.57053,79.31049
"11921",171.4556,78.51438,79.20967
"11922",171.46896,78.46067,79.109535
"11923",171.48227,78.42893,79.02969
"11924",171.49564,78.48264,79.03431
"11925",171.50894,78.69016,79.19441
"11926",171.52231,79.12474,79.58806
"11927",171.53561,79.79126,80.22723
"11928",171.54898,80.63355,81.062996
"11929",171.56229,81.532005,81.98125
"11930",171.57565,82.34257,82.83968
"11931",171.58896,82.93828,83.5086
"11932",171.60233,83.25811,83.92025
"11933",171.61563,83.3167,84.08066
"11934",171.629,83.16289,84.03049
"11935",171.6423,82.86992,83.83636
"11936",171.65567,82.5037,83.55982
"11937",171.66898,82.127716,83.26208
"11938",171.68234,81.78836,82.98921
"11939",171.69565,81.51003,82.76677
"11940",171.70901,81.304955,82.60888
"11941",171.72232,81.17067,82.51537
"11942",171.73569,81.08522,82.46651
"11943",171.749,81.03151,82.44671
"11944",171.76236,81.00221,82.449646
"11945",171.77567,80.987564,82.46632
"11946",171.78903,80.99245,82.50206
"11947",171.80234,81.01686,82.55749
"11948",171.8157,81.04616,82.61856
"11949",171.82901,81.06569,82.670784
"11950",171.84238,81.06813,82.70653
"11951",171.85568,81.02663,82.6984
"11952",171.86905,80.938736,82.64259
"11953",171.88235,80.8069,82.54009
"11954",171.89572,80.63111,82.38952
"11955",171.90903,80.42603,82.20416
"11956",171.9224,80.20386,81.9953
"11957",171.9357,79.97681,81.77462
"11958",171.94907,79.75708,81.55417
"11959",171.96237,79.55688,81.346375
"11960",171.97574,79.378654,81.154305
"11961",171.98904,79.23216,80.988396
"11962",172.00241,79.11009,80.84233
"11963",172.01572,79.012436,80.716866
"11964",172.02908,78.93187,80.60544
"11965",172.04239,78.86351,80.5037
"11966",172.05576,78.80003,80.40471
"11967",172.06906,78.74876,80.31593
"11968",172.08243,78.69749,80.22556
"11969",172.09573,78.6511,80.13847
"11970",172.1091,78.6096,80.05482
"11971",172.1224,78.56565,79.96742
"11972",172.13577,78.52415,79.881096
"11973",172.14908,78.4802,79.79103
"11974",172.16245,78.42649,79.68983
"11975",172.17575,78.3679,79.58206
"11976",172.18912,78.30442,79.46758
"11977",172.20242,78.24338,79.35355
"11978",172.21579,78.187225,79.24251
"11979",172.2291,78.14572,79.144356
"11980",172.24246,78.10422,79.04491
"11981",172.25577,78.07004,78.951485
"11982",172.26913,78.030975,78.85211
"11983",172.28244,77.98947,78.74908
"11984",172.2958,77.9382,78.63498
"11985",172.30911,77.88693,78.51928
"11986",172.32248,77.83566,78.40198
"11987",172.33578,77.789276,78.28796
"11988",172.34915,77.75998,78.189575
"11989",172.36246,77.78195,78.14155
"11990",172.37582,77.92355,78.21384
"11991",172.38913,78.25071,78.476105
"11992",172.4025,78.80736,78.97809
"11993",172.4158,79.5642,79.69766
"11994",172.42917,80.42359,80.543434
"11995",172.44247,81.24391,81.37699
"11996",172.45584,81.881134,82.053085
"11997",172.46915,82.24979,82.48052
"11998",172.48251,82.337685,82.638725
"11999",172.49582,82.196075,82.57017
"12000",172.50919,81.90799,82.35071
"12001",172.52249,81.54665,82.048996
"12002",172.53586,81.17311,81.723785
"12003",172.54916,80.8362,81.42353
"12004",172.56253,80.567635,81.1811
"12005",172.57584,80.37476,81.00597
"12006",172.5892,80.25025,80.893166
"12007",172.60251,80.16968,80.82041
"12008",172.61588,80.11841,80.774445
"12009",172.62918,80.08667,80.74641
"12010",172.64255,80.079346,80.74179
"12011",172.65585,80.093994,80.75892
"12012",172.66922,80.1355,80.80336
"12013",172.68253,80.19165,80.86375
"12014",172.69589,80.24536,80.92345
"12015",172.7092,80.272224,80.95798
"12016",172.72256,80.257576,80.951836
"12017",172.73587,80.198975,80.90128
"12018",172.74924,80.08911,80.79764
"12019",172.76254,79.94507,80.65638
"12020",172.77591,79.77905,80.48865
"12021",172.78922,79.603264,80.305954
"12022",172.80258,79.429924,80.12022
"12023",172.81589,79.26635,79.93883
"12024",172.82925,79.114975,79.76453
"12025",172.84256,78.9807,79.60259
"12026",172.85593,78.86351,79.45355
"12027",172.86923,78.765854,79.32038
"12028",172.8826,78.69749,79.21345
"12029",172.8959,78.64866,79.12392
"12030",172.90927,78.61692,79.04995
"12031",172.92258,78.59983,78.98964
"12032",172.93594,78.59251,78.93856
"12033",172.94925,78.590065,78.892136
"12034",172.96262,78.58762,78.845634
"12035",172.97592,78.5803,78.794174
"12036",172.98929,78.56809,78.7376
"12037",173.0026,78.551,78.675766
"12038",173.01596,78.52903,78.60851
"12039",173.02927,78.502174,78.53569
"12040",173.04263,78.47288,78.45959
"12041",173.05594,78.44358,78.38257
"12042",173.0693,78.416725,78.307076
"12043",173.08261,78.397194,78.23807
"12044",173.09598,78.380104,78.17089
"12045",173.10928,78.365456,78.10562
"12046",173.12265,78.35081,78.039894
"12047",173.13596,78.33616,77.97371
"12048",173.14932,78.32151,77.90707
"12049",173.16263,78.30686,77.839966
"12050",173.176,78.2971,77.77729
"12051",173.1893,78.28977,77.71675
"12052",173.20267,78.28001,77.65354
"12053",173.21597,78.26536,77.585144
"12054",173.22934,78.25315,77.51873
"12055",173.24265,78.24338,77.45437
"12056",173.25601,78.25071,77.40681
"12057",173.26932,78.31663,77.41806
"12058",173.28268,78.51194,77.56077
"12059",173.29599,78.89525,77.897575
"12060",173.30936,79.49096,78.45876
"12061",173.32266,80.255135,79.20703
"12062",173.33603,81.08278,80.04265
"12063",173.34933,81.83719,80.830894
"12064",173.3627,82.38651,81.43763
"12065",173.376,82.669716,81.79541
"12066",173.38937,82.69169,81.90081
"12067",173.40268,82.511024,81.80426
"12068",173.41605,82.20096,81.57266
"12069",173.42935,81.832306,81.27279
"12070",173.44272,81.45876,80.956505
"12071",173.45602,81.126724,80.67005
"12072",173.46939,80.86549,80.44403
"12073",173.4827,80.67994,80.28552
"12074",173.49606,80.56275,80.18958
"12075",173.50937,80.499275,80.14369
"12076",173.52274,80.46998,80.13
"12077",173.53604,80.46754,80.14224
"12078",173.54941,80.49439,80.18371
"12079",173.56271,80.54566,80.25043
"12080",173.57608,80.618904,80.34072
"12081",173.58939,80.69947,80.44063
"12082",173.60275,80.765396,80.52841
"12083",173.61606,80.79469,80.58163
"12084",173.62943,80.77028,80.58205
"12085",173.64273,80.70191,80.53775
"12086",173.6561,80.58961,80.44738
"12087",173.6694,80.44068,80.31688
"12088",173.68277,80.272224,80.16219
"12089",173.69608,80.10132,79.999794
"12090",173.70944,79.9353,79.836945
"12091",173.72275,79.77417,79.67379
"12092",173.73611,79.63256,79.52512
"12093",173.74942,79.51049,79.39157
"12094",173.76279,79.40795,79.273735
"12095",173.7761,79.32983,79.17711
"12096",173.78946,79.276115,79.102455
"12097",173.80276,79.24681,79.05053
"12098",173.81613,79.22728,79.00746
"12099",173.82944,79.21507,78.97111
"12100",173.8428,79.20531,78.93681
"12101",173.85611,79.1931,78.89977
"12102",173.86948,79.17845,78.85991
"12103",173.88278,79.15648,78.81226
"12104",173.89615,79.13451,78.76393
"12105",173.90945,79.10765,78.71003
"12106",173.92282,79.080795,78.65529
"12107",173.93613,79.04906,78.594826
"12108",173.9495,79.01976,78.53581
"12109",173.9628,78.992905,78.478325
"12110",173.97617,78.96849,78.42244
"12111",173.98947,78.941635,78.36335
"12112",174.00284,78.91234,78.30098
"12113",174.01614,78.88548,78.240135
"12114",174.02951,78.86107,78.18089
"12115",174.04282,78.839096,78.12333
"12116",174.05618,78.81712,78.06508
"12117",174.06949,78.80003,78.011024
"12118",174.08286,78.78294,77.956436
"12119",174.09616,78.76341,77.89887
"12120",174.10953,78.73899,77.83581
"12121",174.12283,78.71702,77.77443
"12122",174.1362,78.695045,77.712364
"12123",174.1495,78.66819,77.64473
"12124",174.16287,78.643776,77.5787
"12125",174.17618,78.65598,77.54852
"12126",174.18954,78.75609,77.60663
"12127",174.20285,79.02464,77.83631
"12128",174.21622,79.50805,78.28924
"12129",174.22952,80.19409,78.95991
"12130",174.24289,80.99733,79.76921
"12131",174.2562,81.79324,80.59629
"12132",174.26956,82.44022,81.29931
"12133",174.28287,82.84062,81.77596
"12134",174.29623,82.9749,81.99901
"12135",174.30954,82.8748,81.991875
"12136",174.3229,82.60868,81.81559
"12137",174.33621,82.25468,81.543106
"12138",174.34958,81.87625,81.23514
"12139",174.36288,81.5198,80.93732
"12140",174.37625,81.21706,80.68207
"12141",174.38956,80.990005,80.49305
"12142",174.40292,80.82887,80.362854
"12143",174.41623,80.719,80.278885
"12144",174.4296,80.65308,80.235435
"12145",174.4429,80.62623,80.22899
"12146",174.45627,80.635994,80.25832
"12147",174.46957,80.68482,80.32703
"12148",174.48294,80.77028,80.43388
"12149",174.49625,80.88014,80.56782
"12150",174.50961,80.99245,80.70763
"12151",174.52292,81.08034,80.82653
"12152",174.53629,81.12184,80.901794
"12153",174.54959,81.10719,80.9222
"12154",174.56296,81.02907,80.87868
"12155",174.57626,80.89235,80.77412
"12156",174.58963,80.70435,80.614006
"12157",174.60294,80.48951,80.42117
"12158",174.6163,80.2649,80.21186
"12159",174.62961,80.045166,80.000404
"12160",174.64297,79.84741,79.80406
"12161",174.65628,79.674065,79.625946
"12162",174.66965,79.52758,79.46928
"12163",174.68295,79.41039,79.337326
"12164",174.69632,79.3225,79.23101
"12165",174.70963,79.26147,79.1488
"12166",174.72299,79.23216,79.09642
"12167",174.7363,79.22728,79.06754
"12168",174.74966,79.237045,79.05316
"12169",174.76297,79.259026,79.0513
"12170",174.77634,79.28344,79.05256
"12171",174.78964,79.30053,79.04726
"12172",174.80301,79.310295,79.035164
"12173",174.81631,79.310295,79.01361
"12174",174.82968,79.30297,78.98473
"12175",174.84299,79.293205,78.953186
"12176",174.85635,79.27856,78.91645
"12177",174.86966,79.259026,78.874374
"12178",174.88303,79.234604,78.8268
"12179",174.89633,79.20775,78.776024
"12180",174.9097,79.17113,78.714645
"12181",174.923,79.132065,78.64968
"12182",174.93637,79.09056,78.581055
"12183",174.94968,79.046616,78.50869
"12184",174.96304,79.009995,78.442276
"12185",174.97635,78.97826,78.3796
"12186",174.98972,78.9514,78.320816
"12187",175.00302,78.92699,78.26363
"12188",175.01639,78.90257,78.20569
"12189",175.0297,78.87572,78.14454
"12190",175.04306,78.84642,78.08011
"12191",175.05637,78.82689,78.02453
"12192",175.06973,78.85863,78.01961
"12193",175.08304,79.00755,78.132866
"12194",175.0964,79.34692,78.441216
"12195",175.10971,79.89868,78.97257
"12196",175.12308,80.62867,79.699394
"12197",175.13638,81.43435,80.52472
"12198",175.14975,82.1741,81.309296
"12199",175.16306,82.718544,81.92168
"12200",175.17642,83.00664,82.29472
"12201",175.18973,83.04326,82.4253
"12202",175.2031,82.882126,82.35927
"12203",175.2164,82.59159,82.1588
"12204",175.22977,82.24246,81.890656
"12205",175.24307,81.881134,81.5994
"12206",175.25644,81.54665,81.32371
"12207",175.26974,81.26345,81.08884
"12208",175.28311,81.02907,80.893936
"12209",175.29642,80.84352,80.74055
"12210",175.30978,80.70435,80.62774
"12211",175.32309,80.61402,80.55942
"12212",175.33646,80.57984,80.544426
"12213",175.34976,80.61646,80.59917
"12214",175.36313,80.72144,80.72341
"12215",175.37643,80.88014,80.904655
"12216",175.3898,81.05592,81.10794
"12217",175.4031,81.20729,81.292305
"12218",175.41647,81.304955,81.4277
"12219",175.42978,81.32937,81.49289
"12220",175.44315,81.2781,81.48316
"12221",175.45645,81.163345,81.40835
"12222",175.46982,80.99245,81.2738
"12223",175.48312,80.78981,81.10218
"12224",175.49649,80.57252,80.90957
"12225",175.5098,80.35279,80.70773
"12226",175.52316,80.13794,80.50391
"12227",175.53647,79.94507,80.315346
"12228",175.54984,79.77905,80.14761
"12229",175.56314,79.64721,80.008865
"12230",175.5765,79.54711,79.89774
"12231",175.58981,79.483635,79.820114
"12232",175.60318,79.44457,79.764915
"12233",175.61649,79.4226,79.725586
"12234",175.62985,79.40795,79.692894
"12235",175.64316,79.40063,79.66707
"12236",175.65652,79.38598,79.63369
"12237",175.66983,79.36889,79.59741
"12238",175.6832,79.34936,79.55816
"12239",175.6965,79.32983,79.518295
"12240",175.70987,79.30053,79.468056
"12241",175.72318,79.26879,79.41446
"12242",175.73654,79.234604,79.35742
"12243",175.74985,79.18822,79.28712
"12244",175.76321,79.13939,79.21292
"12245",175.77652,79.08812,79.13476
"12246",175.78989,79.03929,79.057434
"12247",175.80319,79.00023,78.98835
"12248",175.81656,78.96361,78.92049
"12249",175.82986,78.92943,78.85392
"12250",175.84323,78.89769,78.78873
"12251",175.85654,78.86107,78.71766
"12252",175.8699,78.81468,78.63568
"12253",175.88321,78.76341,78.54737
"12254",175.89658,78.709694,78.45501
"12255",175.90988,78.67063,78.375626
"12256",175.92325,78.6804,78.34385
"12257",175.93655,78.81712,78.43934
"12258",175.94992,79.151596,78.73685
"12259",175.96323,79.71557,79.27431
"12260",175.9766,80.46754,80.01739
"12261",175.9899,81.3196,80.88406
"12262",176.00327,82.13016,81.735855
"12263",176.01657,82.7625,82.43476
"12264",176.02994,83.13359,82.89218
"12265",176.04324,83.23369,83.0902
"12266",176.05661,83.106735,83.0643
"12267",176.06992,82.82353,82.87818
"12268",176.08328,82.45731,82.6002
"12269",176.09659,82.06912,82.288795
"12270",176.10995,81.7029,81.987236
"12271",176.12326,81.392845,81.73039
"12272",176.13663,81.143814,81.52489
"12273",176.14993,80.95094,81.36776
"12274",176.1633,80.80446,81.25099
"12275",176.1766,80.69703,81.1687
"12276",176.18997,80.63355,81.12701
"12277",176.20328,80.621346,81.1346
"12278",176.21664,80.66285,81.19552
"12279",176.22995,80.75075,81.30413
"12280",176.24332,80.87282,81.44966
"12281",176.25662,80.98512,81.58924
"12282",176.26999,81.06569,81.70059
"12283",176.2833,81.08766,81.75587
"12284",176.29666,81.0486,81.75079
"12285",176.30997,80.9485,81.683464
"12286",176.32333,80.797134,81.56174
"12287",176.33664,80.604256,81.39377
"12288",176.35,80.39185,81.20025
"12289",176.36331,80.16724,80.98788
"12290",176.37668,79.94995,80.77582
"12291",176.38998,79.74975,80.57405
"12292",176.40335,79.57397,80.39045
"12293",176.41666,79.429924,80.23309
"12294",176.43002,79.31762,80.102974
"12295",176.44333,79.234604,79.998634
"12296",176.4567,79.17113,79.91124
"12297",176.47,79.12718,79.84139
"12298",176.48337,79.10277,79.7897
"12299",176.49667,79.09056,79.74946
"12300",176.51004,79.080795,79.71127
"12301",176.52335,79.06859,79.67034
"12302",176.53671,79.04906,79.621704
"12303",176.55002,79.01732,79.56025
"12304",176.56339,78.97826,79.49048
"12305",176.57669,78.93431,79.414604
"12306",176.59006,78.890366,79.33736
"12307",176.60336,78.84886,79.26118
"12308",176.61673,78.81468,79.191025
"12309",176.63004,78.7805,79.119804
"12310",176.6434,78.746315,79.04751
"12311",176.65671,78.709694,78.97171
"12312",176.67007,78.67063,78.89233
"12313",176.68338,78.62913,78.80928
"12314",176.69675,78.59251,78.72982
"12315",176.71005,78.555885,78.649216
"12316",176.72342,78.521706,78.56991
"12317",176.73672,78.49485,78.49686
"12318",176.75009,78.467995,78.422966
"12319",176.7634,78.44114,78.348236
"12320",176.77676,78.41428,78.27267
"12321",176.79007,78.39231,78.20114
"12322",176.80344,78.397194,78.155785
"12323",176.81674,78.48264,78.19115
"12324",176.83011,78.73411,78.395195
"12325",176.84341,79.21507,78.8366
"12326",176.85678,79.93286,79.52986
"12327",176.87009,80.82155,80.41645
"12328",176.88345,81.74929,81.369865
"12329",176.89676,82.57206,82.2473
"12330",176.91013,83.15556,82.91118
"12331",176.92343,83.44854,83.302765
"12332",176.9368,83.46563,83.42762
"12333",176.9501,83.27276,83.34305
"12334",176.96347,82.94072,83.11328
"12335",176.97678,82.54032,82.80478
"12336",176.99014,82.13992,82.483765
"12337",177.00345,81.78104,82.19175
"12338",177.01682,81.49294,81.95931
"12339",177.03012,81.28054,81.793564
"12340",177.04349,81.13649,81.68953
"12341",177.0568,81.04616,81.63471
"12342",177.07016,80.987564,81.60881
"12343",177.08347,80.95827,81.610374
"12344",177.09683,80.95094,81.632996
"12345",177.11014,80.97536,81.687126
"12346",177.1235,81.024185,81.76643
"12347",177.13681,81.08522,81.859474
"12348",177.15018,81.13893,81.9471
"12349",177.16348,81.163345,82.0071
"12350",177.17685,81.14137,82.021484
"12351",177.19016,81.07057,81.98635
"12352",177.20352,80.9485,81.897736
"12353",177.21683,80.78737,81.76624
"12354",177.2302,80.59693,81.60041
"12355",177.2435,80.394295,81.41643
"12356",177.25687,80.18921,81.22366
"12357",177.27017,79.991455,81.03182
"12358",177.28354,79.80347,80.84357
"12359",177.29684,79.635,80.66896
"12360",177.31021,79.48852,80.51107
"12361",177.32352,79.36645,80.37302
"12362",177.33688,79.276115,80.262886
"12363",177.35019,79.21019,80.17434
"12364",177.36356,79.1638,80.10327
"12365",177.37686,79.132065,80.0454
"12366",177.39023,79.10765,79.993866
"12367",177.40353,79.08568,79.94401
"12368",177.4169,79.063705,79.89346
"12369",177.4302,79.03929,79.83979
"12370",177.44357,79.012436,79.78291
"12371",177.45688,78.9807,79.720314
"12372",177.47025,78.941635,79.6494
"12373",177.48355,78.89525,79.56994
"12374",177.49692,78.8513,79.49147
"12375",177.51022,78.80003,79.404305
"12376",177.52359,78.751205,79.31798
"12377",177.5369,78.69993,79.22768
"12378",177.55026,78.6511,79.13822
"12379",177.56357,78.60471,79.04968
"12380",177.57693,78.555885,78.95725
"12381",177.59024,78.51682,78.87306
"12382",177.6036,78.48264,78.792534
"12383",177.61691,78.450905,78.71338
"12384",177.63028,78.42405,78.638115
"12385",177.64359,78.397194,78.56201
"12386",177.65695,78.37034,78.48507
"12387",177.67026,78.3386,78.402405
"12388",177.68362,78.30442,78.31631
"12389",177.69693,78.27512,78.234024
"12390",177.7103,78.2678,78.1728
"12391",177.7236,78.331276,78.182144
"12392",177.73697,78.54368,78.3424
"12393",177.75027,78.975815,78.72903
"12394",177.76364,79.64965,79.37086
"12395",177.77695,80.51148,80.22174
"12396",177.79031,81.45144,81.17768
"12397",177.80362,82.31083,82.08243
"12398",177.81699,82.95781,82.80162
"12399",177.83029,83.31182,83.24806
"12400",177.84366,83.38262,83.422356
"12401",177.85696,83.22392,83.36936
"12402",177.87033,82.91142,83.15761
"12403",177.88364,82.52079,82.857956
"12404",177.897,82.11307,82.52901
"12405",177.91031,81.739525,82.2215
"12406",177.92368,81.43679,81.97312
"12407",177.93698,81.2195,81.80073
"12408",177.95035,81.075455,81.69479
"12409",177.96365,80.98268,81.63563
"12410",177.97702,80.92653,81.61018
"12411",177.99033,80.89235,81.60496
"12412",178.0037,80.88014,81.620636
"12413",178.017,80.89723,81.66523
"12414",178.03036,80.94606,81.742096
"12415",178.04367,81.00954,81.83514
"12416",178.05704,81.06569,81.92284
"12417",178.07034,81.08766,81.97811
"12418",178.08371,81.058365,81.9828
"12419",178.09702,80.97536,81.93287
"12420",178.11038,80.84108,81.82907
"12421",178.12369,80.66529,81.679565
"12422",178.13705,80.46021,81.49528
"12423",178.15036,80.24048,81.289925
"12424",178.16373,80.01831,81.07527
"12425",178.17703,79.80347,80.861
"12426",178.1904,79.605705,80.6571
"12427",178.2037,79.43481,80.47388
"12428",178.21707,79.28832,80.30973
"12429",178.23038,79.168686,80.167854
"12430",178.24374,79.078354,80.051544
"12431",178.25705,79.009995,79.954384
"12432",178.27042,78.958725,79.87218
"12433",178.28372,78.91722,79.798134
"12434",178.29709,78.88548,79.73256
"12435",178.3104,78.8513,79.66355
"12436",178.32376,78.81468,79.591034
"12437",178.33707,78.77318,79.51249
"12438",178.35043,78.73167,79.43264
"12439",178.36374,78.68528,79.34662
"12440",178.3771,78.63645,79.25671
"12441",178.39041,78.58274,79.160385
"12442",178.40378,78.52903,79.062386
"12443",178.41708,78.4802,78.96759
"12444",178.43045,78.433815,78.87371
"12445",178.44376,78.39231,78.783264
"12446",178.45712,78.35325,78.69396
"12447",178.47043,78.31663,78.60588
"12448",178.4838,78.277565,78.51421
"12449",178.4971,78.238495,78.42132
"12450",178.51047,78.19943,78.32721
"12451",178.52377,78.167694,78.239204
"12452",178.53714,78.14328,78.15753
"12453",178.55045,78.12131,78.07754
"12454",178.56381,78.09689,77.994415
"12455",178.57712,78.07004,77.90809
"12456",178.59048,78.04318,77.82092
"12457",178.60379,78.01877,77.73536
"12458",178.61716,78.00168,77.65636
"12459",178.63046,78.009,77.601234
"12460",178.64383,78.08469,77.6147
"12461",178.65714,78.311745,77.781906
"12462",178.6705,78.746315,78.16372
"12463",178.6838,79.40795,78.78618
"12464",178.69717,80.23804,79.59776
"12465",178.71048,81.11696,80.48412
"12466",178.72385,81.88846,81.29053
"12467",178.73715,82.423134,81.88422
"12468",178.75052,82.66483,82.20164
"12469",178.76382,82.633095,82.253174
"12470",178.77719,82.391396,82.09376
"12471",178.7905,82.020294,81.797386
"12472",178.80386,81.600365,81.44059
"12473",178.81717,81.1902,81.08044
"12474",178.83054,80.831314,80.75874
"12475",178.84384,80.55543,80.508835
"12476",178.85721,80.35767,80.32844
"12477",178.87051,80.22339,80.20533
"12478",178.88388,80.14282,80.131744
"12479",178.89719,80.10132,80.0947
"12480",178.91055,80.09155,80.088104
"12481",178.92386,80.11597,80.11538
"12482",178.93723,80.17212,80.175156
"12483",178.95053,80.25269,80.26111
"12484",178.9639,80.34058,80.356895
"12485",178.9772,80.411385,80.43834
"12486",178.99057,80.4358,80.47561
"12487",179.00388,80.40894,80.46237
"12488",179.01724,80.32838,80.394585
"12489",179.03055,80.19653,80.273
"12490",179.04391,80.03296,80.11557
"12491",179.05722,79.84985,79.933495
"12492",179.07059,79.6643,79.74325
"12493",179.0839,79.48608,79.554535
"12494",179.09726,79.31762,79.37002
"12495",179.11057,79.17113,79.2022
"12496",179.12393,79.044174,79.04935
"12497",179.13724,78.941635,78.91694
"12498",179.1506,78.85863,78.80086
"12499",179.16391,78.80003,78.7066
"12500",179.17728,78.76097,78.630035
"12501",179.19058,78.73899,78.569336
"12502",179.20395,78.729225,78.520164
"12503",179.21725,78.7219,78.47313
"12504",179.23062,78.71946,78.43075
"12505",179.24393,78.712135,78.38341
"12506",179.2573,78.709694,78.34072
"12507",179.2706,78.70237,78.293076
"12508",179.28397,78.695045,78.2452
"12509",179.29727,78.68284,78.192215
"12510",179.31064,78.660866,78.12908
"12511",179.32394,78.63645,78.06282
"12512",179.33731,78.607155,77.99091
"12513",179.35062,78.5803,77.92053
"12514",179.36398,78.553444,77.84931
"12515",179.37729,78.53147,77.782135
"12516",179.39066,78.5095,77.71427
"12517",179.40396,78.49241,77.650604
"12518",179.41733,78.485085,77.59617
"12519",179.43063,78.47776,77.541504
"12520",179.444,78.47776,77.493935
"12521",179.4573,78.47532,77.443924
"12522",179.47067,78.47288,77.39384
"12523",179.48398,78.46311,77.33635
"12524",179.49734,78.450905,77.276115
"12525",179.51065,78.43137,77.208176
"12526",179.52402,78.4094,77.137184
"12527",179.53732,78.39231,77.07039
"12528",179.55069,78.40208,77.029915
"12529",179.564,78.485085,77.06299
"12530",179.57736,78.71946,77.25002
"12531",179.59067,79.1638,77.65435
"12532",179.60403,79.823,78.287415
"12533",179.61734,80.63111,79.09
"12534",179.6307,81.47097,79.94958
"12535",179.64401,82.18875,80.713326
"12536",179.65738,82.66483,81.257805
"12537",179.67068,82.85039,81.526634
"12538",179.68405,82.774704,81.54002
"12539",179.69736,82.511024,81.36305
"12540",179.71072,82.13748,81.06798
"12541",179.72403,81.71999,80.717285
"12542",179.7374,81.31716,80.3682
"12543",179.7507,80.96071,80.05291
"12544",179.76407,80.66773,79.789955
"12545",179.77737,80.44068,79.58377
"12546",179.79074,80.27711,79.43397
"12547",179.80405,80.17212,79.33764
"12548",179.81741,80.11841,79.28931
"12549",179.83072,80.12085,79.29545
"12550",179.84409,80.177,79.35538
"12551",179.85739,80.28443,79.46834
"12552",179.87076,80.41627,79.60906
"12553",179.88406,80.552986,79.75879
"12554",179.89743,80.66529,79.888374
"12555",179.91074,80.73365,79.97752
"12556",179.9241,80.743416,80.010216
"12557",179.93741,80.68726,79.977295
"12558",179.95078,80.57984,79.89135
"12559",179.96408,80.42359,79.75322
"12560",179.97745,80.23804,79.5809
"12561",179.99075,80.04028,79.39059
"12562",180.00412,79.84741,79.198975
"12563",180.01743,79.674065,79.02086
"12564",180.03079,79.52514,78.86175
"12565",180.0441,79.40307,78.72484
"12566",180.05746,79.310295,78.61341
"12567",180.07077,79.24437,78.52593
"12568",180.08414,79.200424,78.458374
"12569",180.09744,79.185776,78.41874
"12570",180.11081,79.18822,78.39574
"12571",180.12411,79.20775,78.3899
"12572",180.13748,79.23216,78.38956
"12573",180.15079,79.25414,78.38754
"12574",180.16415,79.26879,78.37888
"12575",180.17746,79.27123,78.358475
"12576",180.19083,79.26635,78.33082
"12577",180.20413,79.2517,78.29324
"12578",180.2175,79.234604,78.25276
"12579",180.2308,79.21507,78.20931
"12580",180.24417,79.200424,78.170135
"12581",180.25748,79.183334,78.12806
"12582",180.27084,79.166245,78.08545
"12583",180.28415,79.151596,78.04475
"12584",180.29752,79.13451,78.001144
"12585",180.31082,79.114975,77.95457
"12586",180.32419,79.09056,77.9025
"12587",180.3375,79.06859,77.852104
"12588",180.35086,79.046616,77.801025
"12589",180.36417,79.02464,77.74926
"12590",180.37753,79.00267,77.69681
"12591",180.39084,78.98558,77.64855
"12592",180.4042,78.96605,77.59732
"12593",180.41751,78.95384,77.5528
"12594",180.43088,78.98314,77.54941
"12595",180.44418,79.114975,77.64947
"12596",180.45755,79.42016,77.926994
"12597",180.47086,79.93286,78.42158
"12598",180.48422,80.61158,79.0982
"12599",180.49753,81.37087,79.8766
"12600",180.5109,82.07156,80.62013
"12601",180.5242,82.58915,81.20245
"12602",180.53757,82.85283,81.54704
"12603",180.55087,82.865036,81.6484
"12604",180.56424,82.67216,81.54505
"12605",180.57755,82.34501,81.30141
"12606",180.59091,81.94705,80.97673
"12607",180.60422,81.53689,80.62741
"12608",180.61758,81.15114,80.28969
"12609",180.63089,80.82399,79.99851
"12610",180.64426,80.55543,79.7557
"12611",180.65756,80.34791,79.56554
"12612",180.67093,80.19165,79.42015
"12613",180.68423,80.096436,79.330925
"12614",180.6976,80.06714,79.30464
"12615",180.7109,80.11597,79.35557
"12616",180.72427,80.24048,79.4837
"12617",180.73758,80.428474,79.679214
"12618",180.75095,80.64088,79.90501
"12619",180.76425,80.831314,80.11547
"12620",180.77762,80.96071,80.27084
"12621",180.79092,81.00954,80.34969
"12622",180.80429,80.970474,80.34218
"12623",180.8176,80.85817,80.2602
"12624",180.83096,80.69459,80.123436
"12625",180.84427,80.499275,79.94983
"12626",180.85764,80.29908,79.765236
"12627",180.87094,80.10376,79.57926
"12628",180.88431,79.923096,79.40184
"12629",180.89761,79.75708,79.23342
"12630",180.91098,79.61303,79.08178
"12631",180.92429,79.4934,78.95006
"12632",180.93765,79.40063,78.84145
"12633",180.95096,79.34203,78.76413
"12634",180.96432,79.31762,78.719154
"12635",180.97763,79.31762,78.69783
"12636",180.991,79.33471,78.693596
"12637",181.0043,79.35912,78.69722
"12638",181.01767,79.38842,78.70649
"12639",181.03098,79.412834,78.71179
"12640",181.04434,79.429924,78.71053
"12641",181.05765,79.44457,78.70737
"12642",181.07101,79.4519,78.697334
"12643",181.08432,79.4519,78.68021
"12644",181.09769,79.44213,78.65331
"12645",181.111,79.42504,78.61879
"12646",181.12436,79.40063,78.57641
"12647",181.13766,79.378654,78.535706
"12648",181.15103,79.35668,78.494316
"12649",181.16434,79.32983,78.44736
"12650",181.1777,79.29565,78.392235
"12651",181.19101,79.256584,78.33116
"12652",181.20438,79.21263,78.26398
"12653",181.21768,79.1638,78.190544
"12654",181.23105,79.13695,78.13756
"12655",181.24435,79.18089,78.15453
"12656",181.25772,79.36645,78.31449
"12657",181.27103,79.7522,78.68044
"12658",181.2844,80.343025,79.26353
"12659",181.2977,81.075455,80.006676
"12660",181.31107,81.829865,80.79469
"12661",181.32437,82.46952,81.49153
"12662",181.33774,82.882126,81.98131
"12663",181.35104,83.02373,82.212975
"12664",181.36441,82.92851,82.21225
